0.487312,0.484871,0.477058,0.469978,0.465583,0.462898,0.458747,0.452888,0.450202,0.448493,0.444343,0.441657,0.441169,0.443854,0.444099,0.449226,0.464607,0.473396,0.476326,0.475105,0.470466,0.465583,0.462654,0.462898,0.468269,0.471199,0.474617,0.474617,0.478767,0.484871,0.486336,0.484382,0.48365,0.485359,0.487556,0.487312,0.4878,0.488777,0.489509,0.487068,0.481697,0.475349,0.46949,0.46949,0.467292,0.464607,0.461677,0.456794,0.455085,0.460212,0.471931,0.468025,0.459236,0.451423,0.446052,0.441413,0.439704,0.447517,0.458747,0.465827,0.471443,0.471687,0.466072,0.460212,0.478035,0.471443,0.467781,0.46656,0.464118,0.460212,0.455085,0.447761,0.442634,0.443854,0.445563,0.445319,0.442634,0.443122,0.445563,0.447761,0.457038,0.466316,0.471931,0.472419,0.470466,0.468513,0.466804,0.466804,0.46949,0.471199,0.476081,0.482673,0.488045,0.492439,0.497322,0.49659,0.492927,0.489509,0.491707,0.492195,0.489754,0.48658,0.481697,0.478279,0.471687,0.465583,0.459724,0.457527,0.459724,0.467781,0.477058,0.473884,0.467536,0.461433,0.450446,0.441657,0.435554,0.428962,0.424079,0.42237,0.430182,0.448493,0.474128,0.491218,0.492195,0.483406,0.474128,0.466804,0.467536,0.46949,0.472908,0.486091,0.496345,0.497566,0.493172,0.488777,0.487312,0.488289,0.489021,0.492439,0.49366,0.491218,0.486824,0.48658,0.482673,0.477302,0.474372,0.471931,0.470466,0.467781,0.461433,0.454841,0.448249,0.44361,0.441413,0.444099,0.448249,0.449714,0.448981,0.449226,0.448737,0.449958,0.451911,0.458259,0.467048,0.470954,0.472908,0.470954,0.472419,0.471199,0.473396,0.474372,0.475593,0.474861,0.476326,0.480476,0.483894,0.481209,0.484382,0.495857,0.507088,0.51075,0.505867,0.499031,0.488777,0.481209,0.475837,0.470222,0.46656,0.464363,0.459724,0.456306,0.45069,0.447028,0.444587,0.44239,0.44654,0.454841,0.460212,0.460945,0.458991,0.461189,0.459968,0.457038,0.457282,0.459724,0.462898,0.464118,0.463874,0.462409,0.460456,0.464851,0.474861,0.482429,0.494636,0.498543,0.492927,0.48658,0.487068,0.491707,0.498787,0.500252,0.498299,0.496834,0.493172,0.485115,0.477546,0.471199,0.466316,0.461189,0.460456,0.4607,0.461189,0.464851,0.46363,0.458747,0.45069,0.442634,0.439704,0.441657,0.445319,0.448249,0.448249,0.448737,0.455573,0.461677,0.462654,0.461921,0.460945,0.468513,0.471687,0.474372,0.47657,0.476814,0.478523,0.484382,0.495369,0.5066,0.507332,0.498054,0.488777,0.483894,0.479988,0.480964,0.48072,0.480232,0.478767,0.478035,0.4795,0.477058,0.473884,0.469001,0.462165,0.455573,0.454841,0.458015,0.454597,0.452399,0.455329,0.459724,0.460212,0.454597,0.45069,0.449226,0.45069,0.451179,0.452155,0.446784,0.439948,0.432624,0.433112,0.452399,0.480232,0.498543,0.511727,0.514656,0.508797,0.503914,0.505623,0.512459,0.507088,0.498299,0.492195,0.488533,0.485603,0.48365,0.479744,0.474372,0.472908,0.478279,0.4795,0.471687,0.463142,0.454353,0.44947,0.445319,0.44361,0.444587,0.447272,0.449226,0.455573,0.460945,0.460945,0.45948,0.455329,0.452155,0.449714,0.450446,0.452888,0.457771,0.460212,0.466072,0.473152,0.475349,0.476081,0.475593,0.476081,0.477302,0.479744,0.484382,0.490974,0.494148,0.493416,0.490242,0.486091,0.485603,0.490242,0.491463,0.491707,0.487556,0.482918,0.477546,0.469001,0.459236,0.44947,0.445563,0.441413,0.440436,0.441901,0.458259,0.471443,0.468025,0.457282,0.451423,0.451667,0.459724,0.467781,0.471687,0.471931,0.466072,0.459236,0.451423,0.447761,0.45362,0.468025,0.475837,0.479988,0.484627,0.492683,0.497078,0.496834,0.493172,0.489509,0.490242,0.489998,0.491707,0.491707,0.491951,0.492683,0.49366,0.491463,0.487068,0.481941,0.475593,0.46949,0.463386,0.457282,0.454597,0.452399,0.450446,0.447761,0.445563,0.441901,0.43946,0.440192,0.441169,0.442878,0.445319,0.44947,0.457038,0.465339,0.471199,0.472419,0.469734,0.468513,0.467048,0.468025,0.472663,0.475105,0.476814,0.479255,0.483162,0.488777,0.492195,0.490242,0.487312,0.485115,0.490974,0.495857,0.495857,0.497322,0.497566,0.498543,0.490974,0.478767,0.469001,0.461189,0.45362,0.444831,0.437751,0.433112,0.435309,0.438727,0.44361,0.454353,0.466316,0.470222,0.465583,0.460945,0.462409,0.462898,0.45948,0.457038,0.45655,0.458747,0.461189,0.464851,0.466072,0.467781,0.467781,0.474861,0.487312,0.490242,0.486091,0.484138,0.494881,0.5149,0.525643,0.521004,0.507576,0.497322,0.490974,0.482429,0.473396,0.468269,0.463142,0.458991,0.464607,0.47657,0.475837,0.465095,0.454353,0.446296,0.441169,0.43946,0.438972,0.439948,0.441413,0.443366,0.442634,0.446052,0.447517,0.447517,0.448981,0.451911,0.457282,0.465339,0.47779,0.484627,0.48365,0.48365,0.487068,0.491463,0.493416,0.494636,0.498787,0.502205,0.502205,0.498787,0.494148,0.491707,0.4878,0.481209,0.476326,0.474128,0.473152,0.471687,0.470954,0.465095,0.45948,0.4607,0.458991,0.452155,0.446784,0.441169,0.437995,0.437263,0.440925,0.443366,0.448493,0.455329,0.461433,0.464118,0.468513,0.469001,0.466316,0.466072,0.467292,0.47071,0.473152,0.476326,0.480232,0.484382,0.484871,0.48658,0.489754,0.491951,0.49366,0.494392,0.489998,0.484382,0.480232,0.475105,0.471687,0.472908,0.477546,0.482673,0.482429,0.480476,0.475349,0.464851,0.45362,0.448493,0.44361,0.438972,0.437751,0.447272,0.4607,0.462654,0.457282,0.453376,0.457771,0.464851,0.465583,0.462654,0.457282,0.447517,0.443366,0.446296,0.454597,0.466316,0.479988,0.494636,0.504158,0.510262,0.521981,0.527108,0.515145,0.500008,0.491951,0.491951,0.488289,0.482918,0.478523,0.475105,0.478035,0.479988,0.476814,0.472663,0.465095,0.45655,0.451423,0.444831,0.440681,0.44239,0.455085,0.460212,0.458503,0.452155,0.448493,0.452644,0.452399,0.451179,0.454597,0.461921,0.465827,0.465095,0.463386,0.462409,0.464851,0.470466,0.475837,0.478279,0.478523,0.477546,0.476081,0.47779,0.483162,0.484627,0.482673,0.484627,0.490242,0.487312,0.479744,0.474861,0.474128,0.472419,0.474617,0.484382,0.488777,0.485603,0.479988,0.474617,0.474617,0.473396,0.470954,0.464851,0.45655,0.448493,0.442145,0.437018,0.436286,0.439948,0.447517,0.458747,0.462409,0.461189,0.460945,0.461189,0.459236,0.463142,0.46363,0.471687,0.478035,0.480232,0.482429,0.484382,0.49073,0.496834,0.500496,0.499763,0.497322,0.492195,0.485847,0.482429,0.478035,0.473396,0.470466,0.477302,0.482429,0.475349,0.469245,0.467781,0.465827,0.463874,0.459236,0.452644,0.448493,0.445808,0.442634,0.441413,0.439216,0.441657,0.44654,0.454108,0.465827,0.47657,0.47657,0.46656,0.460456,0.457771,0.456062,0.458015,0.464118,0.474128,0.485603,0.490486,0.492683,0.499275,0.501228,0.495125,0.489509,0.484382,0.479255,0.479011,0.480232,0.4795,0.477302,0.476081,0.474128,0.475349,0.477058,0.482185,0.485115,0.482429,0.472908,0.463874,0.459236,0.457282,0.452888,0.450202,0.444343,0.445808,0.448981,0.450935,0.450446,0.447761,0.447761,0.447761,0.449958,0.452888,0.457282,0.461921,0.465339,0.472908,0.493172,0.50367,0.50367,0.496345,0.490486,0.488533,0.489509,0.490486,0.491463,0.489754,0.489998,0.4878,0.485359,0.482185,0.478523,0.474861,0.472175,0.468757,0.465339,0.461921,0.455329,0.450446,0.448249,0.448737,0.448005,0.443854,0.44239,0.442145,0.443366,0.453132,0.463386,0.46363,0.464118,0.468025,0.468513,0.464607,0.462165,0.462898,0.466316,0.468757,0.472908,0.4795,0.484138,0.489265,0.492927,0.495369,0.496101,0.497078,0.49659,0.49366,0.486824,0.48365,0.484871,0.485603,0.48365,0.479988,0.473884,0.471199,0.469001,0.463874,0.462165,0.459236,0.454108,0.44654,0.437507,0.433112,0.438727,0.447028,0.454353,0.466804,0.481697,0.4878,0.482429,0.466804,0.45655,0.454597,0.460945,0.466316,0.47071,0.471687,0.467048,0.462898,0.4607,0.4607,0.462654,0.469978,0.48365,0.493416,0.495857,0.498299,0.501961,0.503426,0.507576,0.509285,0.503914,0.491951,0.481941,0.47657,0.474617,0.47071,0.465827,0.462165,0.458503,0.453376,0.448981,0.447272,0.45362,0.455085,0.451667,0.44654,0.442878,0.442145,0.440681,0.440925,0.442878,0.448493,0.455818,0.461677,0.458015,0.455818,0.457038,0.457282,0.461189,0.474861,0.489509,0.500252,0.505623,0.49781,0.490974,0.490242,0.497566,0.504402,0.503426,0.502693,0.502449,0.498054,0.49366,0.489754,0.487068,0.484138,0.479011,0.471687,0.463386,0.457038,0.452888,0.448737,0.443854,0.441169,0.442145,0.440925,0.441169,0.439948,0.438727,0.438972,0.440192,0.445563,0.450935,0.455329,0.460945,0.466316,0.472175,0.473884,0.468513,0.464363,0.474128,0.491463,0.494881,0.494392,0.492195,0.492439,0.49366,0.495857,0.501717,0.509773,0.505379,0.494148,0.485359,0.479744,0.472419,0.470466,0.475593,0.480476,0.478523,0.47071,0.460945,0.456794,0.452399,0.453132,0.448737,0.443366,0.438483,0.437995,0.443366,0.446784,0.446296,0.450446,0.453864,0.456306,0.457527,0.458015,0.462654,0.468025,0.475349,0.478523,0.479011,0.479744,0.479011,0.476081,0.476081,0.481209,0.492195,0.500496,0.506111,0.509285,0.509773,0.505135,0.494636,0.48658,0.482673,0.479011,0.475593,0.471199,0.466804,0.464118,0.464118,0.461433,0.457771,0.453864,0.45069,0.447272,0.444099,0.443122,0.44361,0.441657,0.441169,0.440925,0.44239,0.448981,0.455573,0.454353,0.451179,0.455085,0.46363,0.471199,0.476326,0.479011,0.482429,0.493172,0.505623,0.505867,0.501228,0.494636,0.488289,0.4878,0.490486,0.491951,0.491951,0.489998,0.486824,0.481697,0.483894,0.490486,0.491951,0.485847,0.475105,0.463142,0.454841,0.448981,0.447272,0.448737,0.442878,0.435065,0.428229,0.426032,0.425055,0.427008,0.437018,0.450202,0.455329,
0.452399,0.451667,0.476081,0.508797,0.514168,0.501717,0.493172,0.491951,0.489998,0.486091,0.483406,0.482429,0.483406,0.486091,0.492683,0.49781,0.496345,0.491463,0.486336,0.480964,0.476814,0.473884,0.47071,0.468269,0.467536,0.469978,0.469001,0.463386,0.461921,0.45948,0.454108,0.445808,0.44361,0.448493,0.456794,0.452644,0.445075,0.437995,0.437995,0.447028,0.457771,0.463874,0.465095,0.468757,0.47071,0.470954,0.470954,0.470466,0.472663,0.477302,0.481209,0.485359,0.488045,0.489998,0.489754,0.490242,0.4878,0.486091,0.488289,0.491951,0.489509,0.482918,0.47657,0.479011,0.449958,0.45948,0.46656,0.472175,0.472663,0.474617,0.481941,0.489998,0.502937,0.510018,0.50782,0.505867,0.505623,0.508797,0.510994,0.504402,0.493416,0.479011,0.467048,0.462165,0.469001,0.486091,0.496345,0.490486,0.4795,0.47364,0.474861,0.469978,0.458503,0.44654,0.441413,0.436286,0.43238,0.429694,0.427741,0.431891,0.43946,0.449714,0.458259,0.469245,0.482918,0.489509,0.483894,0.473396,0.465827,0.464851,0.468513,0.476814,0.486824,0.496101,0.498299,0.49659,0.492927,0.489998,0.485603,0.485603,0.484382,0.485847,0.493416,0.494148,0.485847,0.475837,0.468757,0.463386,0.458259,0.454353,0.456062,0.464118,0.460945,0.454108,0.452888,0.452888,0.449958,0.445075,0.441657,0.439948,0.440681,0.440436,0.441901,0.44361,0.450446,0.461433,0.467536,0.47071,0.474861,0.479011,0.484138,0.484138,0.475837,0.467536,0.466072,0.472908,0.481697,0.489998,0.496101,0.504402,0.514412,0.518807,0.516365,0.505379,0.495369,0.485115,0.478035,0.475349,0.47071,0.46656,0.462165,0.458015,0.452155,0.441901,0.436042,0.434577,0.439216,0.449714,0.453376,0.448981,0.443366,0.444343,0.451667,0.454353,0.456306,0.464363,0.469978,0.467781,0.458259,0.454108,0.457771,0.467048,0.482429,0.503182,0.521736,0.521004,0.509529,0.499031,0.498543,0.506844,0.506844,0.501717,0.498054,0.494392,0.488289,0.483162,0.474372,0.463386,0.456306,0.452644,0.452644,0.454353,0.456062,0.457038,0.453376,0.451179,0.460212,0.474617,0.474128,0.460945,0.447272,0.439948,0.439704,0.442634,0.444587,0.446296,0.447517,0.451179,0.452888,0.455085,0.456306,0.461189,0.465095,0.469001,0.472908,0.48365,0.494392,0.498543,0.499031,0.499275,0.495613,0.49659,0.50074,0.501472,0.498054,0.491218,0.486091,0.484627,0.479011,0.471931,0.466804,0.461677,0.458259,0.459968,0.461921,0.459968,0.452888,0.44654,0.442634,0.435309,0.431647,0.440925,0.454353,0.45655,0.452155,0.447517,0.451179,0.4607,0.469245,0.472175,0.475837,0.48072,0.479744,0.476081,0.472175,0.47071,0.471443,0.472175,0.478523,0.486091,0.492683,0.497322,0.504158,0.514656,0.514412,0.502937,0.487068,0.480476,0.48365,0.490486,0.4878,0.479744,0.467536,0.461189,0.458747,0.4607,0.461677,0.459968,0.458503,0.44947,0.436286,0.424323,0.421637,0.423102,0.42652,0.437507,0.449226,0.463874,0.484627,0.502937,0.502449,0.495125,0.488777,0.482673,0.476814,0.468513,0.459236,0.454353,0.456794,0.468757,0.495369,0.517098,0.519051,0.511971,0.50367,0.500496,0.500252,0.495369,0.484627,0.47657,0.473396,0.474617,0.474861,0.471931,0.468025,0.465827,0.462898,0.458259,0.450202,0.439948,0.431647,0.423835,0.420417,0.423102,0.432868,0.449226,0.462165,0.465095,0.465095,0.460945,0.455085,0.453864,0.457527,0.466072,0.473396,0.477546,0.480964,0.480964,0.481697,0.481697,0.48365,0.483406,0.484382,0.490486,0.504646,0.516365,0.515145,0.502449,0.489509,0.478767,0.473396,0.47071,0.47071,0.470466,0.479011,0.484138,0.481453,0.476814,0.473152,0.465339,0.456062,0.448493,0.442878,0.438972,0.43653,0.435554,0.437995,0.439216,0.438483,0.435798,0.433845,0.433356,0.428962,0.423835,0.434089,0.451423,0.454841,0.462654,0.499031,0.541268,0.554208,0.542489,0.524666,0.517586,0.515633,0.510018,0.504402,0.497322,0.490242,0.479011,0.467048,0.460945,0.456794,0.456062,0.447272,0.441169,0.441657,0.440192,0.44361,0.454841,0.458991,0.452155,0.448981,0.45362,0.461921,0.464118,0.46656,0.461921,0.452399,0.439704,0.437507,0.449226,0.467781,0.48658,0.500984,0.49659,0.491707,0.493416,0.495125,0.490974,0.48072,0.474372,0.47071,0.475593,0.489021,0.500008,0.510018,0.5149,0.506844,0.499763,0.49781,0.494636,0.488289,0.4795,0.470222,0.464363,0.460945,0.468269,0.474861,0.472663,0.465827,0.452644,0.437018,0.424811,0.414313,0.408942,0.40528,0.415045,0.430915,0.436774,0.440681,0.445808,0.451179,0.466072,0.487312,0.497078,0.48658,0.465339,0.440681,0.421637,0.417975,0.432136,0.456306,0.472419,0.493172,0.538094,0.57911,0.591073,0.566659,0.542245,0.527108,0.515145,0.505135,0.498299,0.489998,0.482429,0.471931,0.45948,0.451423,0.447761,0.44361,0.436774,0.430915,0.431403,0.438727,0.445563,0.438483,0.426764,0.420905,0.426032,0.435798,0.436774,0.440681,0.448005,0.454353,0.460456,0.470954,0.482673,0.484382,0.476814,0.470466,0.464363,0.466804,0.485115,0.507332,0.51783,0.517342,0.512215,0.502205,0.490242,0.484627,0.4878,0.496834,0.50367,0.506111,0.501717,0.494148,0.482429,0.474861,0.462898,0.454597,0.450935,0.445075,0.438727,0.440192,0.443854,0.443854,0.441901,0.449226,0.461189,0.457527,0.448981,0.456306,0.452888,0.434333,0.418219,0.414313,0.430915,0.462165,0.486091,0.491707,0.494636,0.511971,0.520272,0.502937,0.477546,0.463142,0.458991,0.464363,0.473152,0.48365,0.493172,0.507576,0.520027,0.520516,0.516854,0.509773,0.496834,0.485359,0.488045,0.490242,0.491463,0.482185,0.463874,0.445563,0.433356,0.433845,0.436286,0.438483,0.441901,0.445563,0.448249,0.450202,0.449226,0.448737,0.448493,0.445075,0.44239,0.440681,0.441413,0.447028,0.454108,0.472908,0.495125,0.499275,0.494881,0.491951,0.493172,0.501717,0.511727,0.516121,0.508553,0.498787,0.4878,0.479744,0.473884,0.471687,0.46656,0.468025,0.476814,0.479011,0.478523,0.484382,0.484627,0.464607,0.438483,0.422126,0.423102,0.438239,0.444587,0.439216,0.428717,0.431647,0.448737,0.454108,0.45362,0.45069,0.448493,0.453864,0.46363,0.471199,0.472908,0.477302,0.4795,0.479255,0.476081,0.473152,0.470222,0.475349,0.487556,0.50367,0.524422,0.536385,0.538338,0.527596,0.508309,0.49073,0.482918,0.481697,0.490486,0.492927,0.485115,0.468025,0.453376,0.443122,0.439704,0.440192,0.431647,0.425055,0.417243,0.413336,0.408453,0.405035,0.411383,0.419196,0.429206,0.441901,0.455329,0.466804,0.472908,0.481697,0.49659,0.504158,0.497078,0.494881,0.488777,0.468269,0.449226,0.449714,0.465827,0.487312,0.508064,0.523445,0.52784,0.531746,0.531014,0.516609,0.492683,0.49073,0.51783,0.528817,0.5149,0.489998,0.464851,0.451179,0.455818,0.465827,0.465583,0.457282,0.446296,0.430671,0.414801,0.4065,0.410407,0.421637,0.427985,0.437507,0.446784,0.452888,0.454353,0.455085,0.460456,0.464607,0.467781,0.46949,0.472663,0.478035,0.483894,0.486824,0.489754,0.498054,0.511971,0.515633,0.510262,0.504891,0.498787,0.491707,0.485603,0.483162,0.482185,0.481453,0.484382,0.487068,0.48365,0.475349,0.464851,0.454353,0.44654,0.44239,0.438727,0.432624,0.427741,0.42359,0.421149,0.424079,0.435554,0.447028,0.446052,0.443122,0.446052,0.454597,0.457527,0.457282,0.462165,0.47071,0.479011,0.486824,0.494392,0.503182,0.505867,0.506111,0.50782,0.50367,0.494636,0.48072,0.462409,0.447517,0.445075,0.464607,0.492683,0.528084,0.548592,0.533944,0.518563,0.509285,0.494392,0.467048,0.44947,0.442145,0.43946,0.43653,0.428229,0.425055,0.427741,0.433356,0.439948,0.45069,0.461189,0.462898,0.458991,0.460945,0.468269,0.467781,0.465827,0.463386,0.464118,0.466072,0.47071,0.472908,0.477546,0.491707,0.494392,0.489998,0.489998,0.491463,0.499031,0.509773,0.514168,0.511238,0.509773,0.504402,0.498543,0.496101,0.487556,0.477058,0.465827,0.45948,0.453132,0.448981,0.443366,0.435065,0.428717,0.425299,0.427741,0.432868,0.439704,0.436042,0.430182,0.429938,0.432624,0.4336,0.436042,0.43946,0.44654,0.454108,0.462654,0.474372,0.482918,0.489509,0.495125,0.498054,0.499519,0.501717,0.505135,0.506355,0.507088,0.512703,0.516365,0.506355,0.491463,0.4795,0.473884,0.474617,0.47779,0.483406,0.489021,0.502693,0.509529,0.492439,0.462165,0.437507,0.428229,0.429206,0.42945,0.428229,0.431891,0.440436,0.443854,0.444099,0.444099,0.451179,0.462409,0.469734,0.46949,0.465095,0.459236,0.458259,0.465339,0.470222,0.473884,0.479744,0.488777,0.496345,0.502693,0.501961,0.501472,0.499275,0.499031,0.502937,0.501472,0.492439,0.484382,0.483894,0.480964,0.480964,0.487556,0.500496,0.498787,0.493172,0.48365,0.475837,0.469245,0.459724,0.444831,0.43238,0.424079,0.422858,0.423835,0.423102,0.425055,0.426032,0.431403,0.438239,0.437263,0.434333,0.436286,0.447517,0.47071,0.483894,0.485603,0.48365,0.486336,0.487312,0.488289,0.502205,0.523934,0.528573,0.52076,0.512215,0.505867,0.502693,0.498299,0.49366,0.487556,0.479744,0.474861,0.477058,0.478767,0.47071,0.462409,0.452644,0.447272,0.441657,0.433112,0.424567,0.421637,0.421149,0.424567,0.433845,0.444099,0.455573,0.472175,0.47071,0.450446,0.430426,0.419928,0.423835,0.443366,0.460945,0.476814,0.481941,0.485847,0.489021,0.496834,0.507576,0.522957,0.540047,0.548592,0.542,0.525643,0.515389,0.51075,0.501717,0.490974,0.482185,0.474617,0.468757,0.462654,0.458503,0.462165,0.475349,0.474861,0.464851,0.456306,0.448981,0.447028,0.444831,0.436774,0.426764,0.417975,0.415045,0.420172,0.432868,0.445319,0.44361,0.440925,0.442634,0.446052,0.451423,0.453132,0.449958,0.445075,0.447761,0.459968,0.4607,0.4607,0.467048,0.481941,0.520027,0.556161,0.573007,0.571786,0.559579,0.537362,
0.522957,0.5149,0.505135,0.496345,0.485359,0.469978,0.453132,0.44361,0.442145,0.446296,0.445808,0.438972,0.431403,0.424079,0.417243,0.410163,0.404547,0.398199,0.397467,0.397955,0.401862,0.409186,0.421393,0.436042,0.441169,0.441657,0.438727,0.437263,0.437751,0.44361,0.456794,0.478035,0.505135,0.531991,0.534432,0.520272,0.509773,0.507332,0.507088,0.506844,0.502937,0.499031,0.497322,0.495125,0.485359,0.467781,0.457527,0.453376,0.452155,0.462409,0.48072,0.499031,0.496834,0.472663,0.44361,0.426032,0.425544,0.443366,0.462654,0.471931,0.46656,0.457282,0.453864,0.462165,0.487556,0.481941,0.462165,0.445563,0.437263,0.432868,0.427985,0.437263,0.463874,0.500496,0.54078,0.5691,0.571786,0.553231,0.537606,0.531746,0.524666,0.521004,0.522957,0.510018,0.491463,0.475349,0.46363,0.455085,0.445319,0.440192,0.433845,0.425299,0.417731,0.417243,0.42237,0.421393,0.427253,0.448981,0.463386,0.452888,0.435065,0.431891,0.437018,0.444343,0.447517,0.447761,0.448249,0.44947,0.456306,0.461677,0.464851,0.470954,0.479744,0.490242,0.495613,0.507332,0.522225,0.535409,0.53785,0.528817,0.517586,0.510262,0.504891,0.498299,0.491218,0.483162,0.475593,0.469001,0.464118,0.462409,0.464607,0.46656,0.461921,0.449958,0.43653,0.427497,0.420417,0.416266,0.417975,0.420172,0.430915,0.447028,0.451667,0.444587,0.443854,0.444587,0.445563,0.448005,0.454353,0.470222,0.483406,0.492439,0.503914,0.508064,0.501961,0.495613,0.494392,0.495857,0.493416,0.490974,0.488045,0.482673,0.476326,0.469978,0.480964,0.510018,0.535653,0.540536,0.52784,0.510262,0.496101,0.480476,0.46949,0.463386,0.453864,0.439704,0.425055,0.415045,0.412116,0.418463,0.427253,0.432136,0.432868,0.437995,0.435798,0.434333,0.436774,0.440681,0.447272,0.461677,0.475105,0.480232,0.4795,0.479744,0.481453,0.482673,0.487556,0.497566,0.507576,0.515877,0.518807,0.513924,0.508064,0.503182,0.498054,0.492927,0.492195,0.498787,0.502449,0.494881,0.485359,0.474617,0.465583,0.458991,0.449958,0.4336,0.421637,0.412116,0.410651,0.412848,0.415045,0.420905,0.425299,0.423346,0.418219,0.41651,0.418708,0.431159,0.447272,0.475837,0.496101,0.501228,0.497322,0.488533,0.487556,0.491218,0.498787,0.51368,0.525887,0.52784,0.521736,0.519295,0.52369,0.525643,0.515145,0.498543,0.479988,0.46363,0.459724,0.463386,0.469734,0.473884,0.471931,0.471199,0.461921,0.44947,0.438727,0.443122,0.462654,0.473152,0.475837,0.459968,0.435554,0.416999,0.414557,0.418708,0.421881,0.426032,0.431159,0.440925,0.455329,0.46949,0.479011,0.484871,0.485603,0.48658,0.486824,0.487068,0.489998,0.494392,0.499275,0.503182,0.507332,0.505379,0.501717,0.498299,0.494392,0.489265,0.485359,0.478767,0.477302,0.487556,0.493172,0.488777,0.486824,0.493172,0.488289,0.476326,0.455818,0.438239,0.428717,0.427741,0.424567,0.421637,0.422614,0.424323,0.430182,0.43946,0.447272,0.451911,0.454597,0.461189,0.46656,0.469978,0.474128,0.478035,0.484382,0.490486,0.494881,0.499275,0.501228,0.502937,0.503914,0.503914,0.503182,0.504158,0.504402,0.498543,0.489509,0.48072,0.474372,0.468269,0.467292,0.469245,0.464363,0.45362,0.441901,0.432136,0.425055,0.422614,0.420905,0.423835,0.430671,0.435798,0.440925,0.44361,0.442145,0.438483,0.437751,0.440436,0.444587,0.450446,0.455329,0.464363,0.472908,0.485115,0.491707,0.492683,0.501717,0.521981,0.539071,0.529061,0.513924,0.509773,0.505135,0.500252,0.505623,0.525643,0.537362,0.525887,0.506111,0.490486,0.480232,0.474372,0.469001,0.457038,0.44654,0.442145,0.437263,0.428962,0.421637,0.413092,0.412116,0.418952,0.427741,0.431647,0.437507,0.448493,0.456062,0.462898,0.476814,0.491707,0.494148,0.482673,0.468757,0.458015,0.451911,0.451667,0.462898,0.475349,0.478767,0.481697,0.486336,0.492439,0.505379,0.51368,0.510262,0.50367,0.49659,0.485115,0.475105,0.467536,0.460945,0.450935,0.442145,0.441169,0.441169,0.438972,0.434577,0.436042,0.441657,0.448737,0.444099,0.438727,0.439216,0.449958,0.470466,0.484138,0.4878,0.48658,0.478767,0.474861,0.463386,0.468025,0.482429,0.489021,0.485603,0.491218,0.507088,0.517342,0.519539,0.526619,0.526619,0.513924,0.498787,0.486336,0.474617,0.463874,0.453132,0.449226,0.455329,0.455329,0.441901,0.434821,0.43653,0.439216,0.44239,0.461433,0.466804,0.463142,0.451667,0.433845,0.422858,0.421881,0.427497,0.435309,0.439948,0.44361,0.446296,0.452155,0.458015,0.462898,0.468757,0.470466,0.467781,0.469001,0.483894,0.500252,0.499763,0.484871,0.469734,0.45655,0.445319,0.442878,0.441413,0.440436,0.449226,0.4607,0.469001,0.462654,0.45362,0.442878,0.428717,0.417243,0.421149,0.426276,0.427008,0.430182,0.430182,0.417975,0.411627,0.409918,0.408209,0.408209,0.416022,0.420905,0.416754,0.410163,0.412604,0.427497,0.439948,0.454597,0.47364,0.500984,0.51783,0.530282,0.536141,0.530526,0.524666,0.521492,0.521248,0.533455,0.539071,0.543465,0.550301,0.55494,0.555917,0.546883,0.544686,0.550301,0.553475,0.544198,0.528084,0.510262,0.495613,0.491463,0.497322,0.511238,0.518807,0.521736,0.519295,0.510506,0.498054,0.484382,0.471443,0.460945,0.456062,0.453376,0.448981,0.442878,0.43946,0.439704,0.444099,0.455085,0.473884,0.492683,0.505867,0.505867,0.495369,0.485603,0.4795,0.488045,0.49073,0.480476,0.473884,0.47071,0.469978,0.475349,0.480964,0.484382,0.481453,0.478523,0.481453,0.485847,0.48658,0.48658,0.481697,0.473884,0.465827,0.462165,0.45655,0.452399,0.44654,0.442634,0.440925,0.44361,0.448493,0.448493,0.450446,0.463142,0.466804,0.456306,0.448737,0.455573,0.475593,0.485603,0.484382,0.48072,0.477546,0.47657,0.478767,0.482673,0.501228,0.519295,0.529061,0.515877,0.497566,0.485603,0.486091,0.491463,0.49366,0.490974,0.483406,0.474372,0.468757,0.472419,0.478767,0.481453,0.480964,0.479744,0.472908,0.467292,0.460945,0.453376,0.44361,0.435798,0.432868,0.433356,0.438972,0.445808,0.452155,0.452888,0.447517,0.446784,0.450446,0.436286,0.425544,0.427985,0.435798,0.441901,0.449958,0.458747,0.468757,0.475593,0.481209,0.485847,0.487556,0.489754,0.490974,0.491707,0.492439,0.490974,0.488533,0.488533,0.488533,0.482429,0.477302,0.473396,0.474861,0.476081,0.476081,0.47779,0.477546,0.47071,0.4607,0.454353,0.450935,0.44947,0.447761,0.448737,0.45362,0.45655,0.45655,0.45362,0.453132,0.454353,0.456062,0.460212,0.475105,0.483406,0.480964,0.478523,0.480476,0.484138,0.488289,0.489754,0.490242,0.49366,0.500252,0.502693,0.501961,0.499763,0.492195,0.485603,0.480476,0.47779,0.47657,0.475593,0.480476,0.49073,0.501961,0.50367,0.497322,0.485847,0.47657,0.468757,0.462898,0.458015,0.452399,0.449226,0.447272,0.447517,0.448249,0.444099,0.445563,0.446784,0.448493,0.452155,0.455818,0.458747,0.461189,0.462409,0.465095,0.467536,0.46949,0.472663,0.475349,0.477546,0.480476,0.48072,0.482673,0.482429,0.48365,0.483406,0.483162,0.482429,0.482429,0.481941,0.481453,0.479011,0.479988,0.485603,0.486091,0.478523,0.467536,0.460456,0.455573,0.453376,0.452888,0.452399,0.451911,0.45069,0.449226,0.447272,0.445563,0.445563,0.448493,0.451667,0.453132,0.454353,0.457282,0.461189,0.463386,0.468513,0.473884,0.4795,0.483406,0.492927,0.501472,0.504891,0.505623,0.501961,0.495369,0.487556,0.484871,0.484627,0.485603,0.486824,0.48658,0.485847,0.486091,0.487556,0.491951,0.490486,0.484871,0.478767,0.471443,0.464851,0.456062,0.445075,0.437018,0.429694,0.424323,0.421637,0.423346,0.422858,0.417975,0.416754,0.417975,0.422858,0.430671,0.43946,0.447761,0.459724,0.473396,0.485847,0.500008,0.515633,0.525887,0.525154,0.516121,0.501472,0.488045,0.479744,0.476814,0.482429,0.499275,0.514656,0.521004,0.528328,0.546151,0.552743,0.529305,0.501228,0.482429,0.474128,0.468025,0.461189,0.454597,0.444099,0.434333,0.430671,0.433112,0.437507,0.443366,0.443122,0.439704,0.435798,0.435554,0.437751,0.442145,0.445075,0.449226,0.452888,0.457527,0.46363,0.467292,0.471687,0.475593,0.479011,0.479744,0.477302,0.472419,0.472419,0.473884,0.47364,0.47364,0.481453,0.497078,0.515877,0.523445,0.516609,0.499519,0.482429,0.474128,0.471687,0.473884,0.475105,0.466804,0.454597,0.448981,0.444343,0.438483,0.431403,0.423346,0.417975,0.417487,0.419196,0.420905,0.423102,0.425299,0.429938,0.435798,0.445319,0.453132,0.458503,0.45948,0.460212,0.462898,0.464363,0.467048,0.475349,0.496345,0.528573,0.555673,0.567636,0.568124,0.560067,0.548348,0.539559,0.529793,0.511727,0.494148,0.486824,0.494148,0.503914,0.498787,0.483894,0.457282,0.416999,0.385748,0.367926,0.358404,0.35108,0.347906,0.347906,0.353277,0.361089,0.369879,0.37818,0.392096,0.408453,0.429938,0.448981,0.462165,0.469978,0.473396,0.472908,0.474372,0.48072,0.489998,0.498787,0.506111,0.511971,0.515145,0.510994,0.508309,0.511971,0.513924,0.508064,0.49659,0.485847,0.470466,0.460456,0.458991,0.458991,0.458747,0.453376,0.447517,0.441413,0.434821,0.427985,0.421881,0.417243,0.412848,0.4065,0.397955,0.394537,0.387945,0.384527,0.385504,0.38819,0.396002,0.405035,0.416022,0.430182,0.441169,0.455329,0.468269,0.479988,0.491463,0.505867,0.519783,0.531502,0.536385,0.534188,0.531991,0.527596,0.531991,0.537362,0.536873,0.539071,0.539803,0.534188,0.52491,0.515145,0.504646,0.500984,0.496345,0.489998,0.48365,0.479255,0.475105,0.466072,0.455329,0.450202,0.441169,0.429694,0.421393,0.414313,0.40943,0.407233,0.412116,0.421149,0.431159,0.451179,0.471443,0.482673,0.490242,0.498787,0.505135,0.512215,0.52076,0.527596,0.53492,0.54078,0.546395,0.552743,0.556893,0.564706,0.5691,0.567147,0.562264,0.556161,
0.544442,0.53077,0.519051,0.510994,0.502693,0.491951,0.484627,0.48072,0.47779,0.473396,0.470466,0.462654,0.444831,0.427008,0.410407,0.402106,0.398932,0.395758,0.396735,0.399664,0.406012,0.413581,0.425055,0.436042,0.445319,0.452155,0.461433,0.46949,0.478523,0.490242,0.503182,0.513436,0.52076,0.526619,0.533211,0.53785,0.540291,0.545174,0.549325,0.548836,0.548836,0.547127,0.542733,0.528084,0.512215,0.500984,0.489021,0.475349,0.460456,0.444343,0.425544,0.406012,0.386236,0.371588,0.365484,0.366705,0.377691,0.395514,0.41236,0.434333,0.459236,0.484627,0.501472,0.509041,0.427253,0.442634,0.452888,0.456794,0.44239,0.423102,0.412604,0.424323,0.443122,0.468025,0.505623,0.544442,0.569589,0.562753,0.546883,0.532479,0.512215,0.491707,0.475105,0.46656,0.468757,0.47071,0.461433,0.444587,0.424079,0.408453,0.391363,0.374273,0.360357,0.359625,0.370123,0.400885,0.417243,0.381109,0.354986,0.38941,0.443854,0.469978,0.469001,0.434821,0.390387,0.362066,0.357916,0.366705,0.379156,0.39942,0.437507,0.469245,0.498543,0.51368,0.511971,0.504646,0.508797,0.525887,0.541268,0.534432,0.514656,0.500252,0.489265,0.478035,0.471931,0.471687,0.465583,0.448493,0.42945,0.429206,0.432868,0.435554,0.449714,0.474861,0.488045,0.490486,0.490486,0.484871,0.473884,0.472908,0.4795,0.474372,0.454841,0.438239,0.427741,0.420905,0.420661,0.425788,0.432624,0.422126,0.416266,0.440436,0.478523,0.511971,0.541268,0.553475,0.543465,0.525887,0.528328,0.540047,0.529549,0.516121,0.515877,0.526619,0.520027,0.503426,0.495613,0.495613,0.490242,0.504891,0.530037,0.528328,0.511971,0.485603,0.461189,0.446784,0.436286,0.427253,0.421149,0.419928,0.418463,0.422614,0.430426,0.437507,0.45362,0.473884,0.48658,0.492195,0.497078,0.498299,0.496345,0.497566,0.505135,0.527596,0.556649,0.568368,0.561288,0.544442,0.525399,0.521981,0.554696,0.573495,0.573983,0.572763,0.567391,0.567636,0.560311,0.543954,0.529061,0.528328,0.522225,0.575692,0.614267,0.616953,0.587655,0.560555,0.541512,0.526619,0.511971,0.494148,0.484627,0.479255,0.473884,0.467536,0.459968,0.451911,0.441901,0.43238,0.419196,0.398932,0.396246,0.403082,0.437507,0.487556,0.52076,0.516121,0.504402,0.5066,0.506844,0.501717,0.489509,0.473884,0.468025,0.461677,0.451911,0.438483,0.438239,0.448005,0.458259,0.457527,0.433356,0.395758,0.374762,0.367437,0.339361,0.327398,0.357427,0.399176,0.426764,0.453132,0.481941,0.485847,0.466804,0.464607,0.460212,0.436286,0.422858,0.421637,0.428473,0.436286,0.452888,0.47364,0.48365,0.486091,0.484871,0.488777,0.494636,0.504158,0.511238,0.51783,0.521981,0.523201,0.514412,0.503182,0.491463,0.484627,0.481941,0.487068,0.495369,0.493904,0.484871,0.465827,0.45069,0.439948,0.424323,0.381842,0.342535,0.3252,0.325444,0.339117,0.355474,0.376959,0.385992,0.395758,0.417487,0.446784,0.473396,0.50367,0.518807,0.481209,0.437507,0.395026,0.390875,0.408453,0.431891,0.457771,0.474617,0.471443,0.479011,0.492683,0.498054,0.501228,0.512947,0.530037,0.528817,0.51368,0.501961,0.487312,0.489509,0.50074,0.499275,0.490974,0.492195,0.495857,0.498054,0.492683,0.483406,0.479011,0.476814,0.476081,0.481453,0.478767,0.464851,0.448493,0.430915,0.422614,0.427741,0.435798,0.449226,0.460456,0.47071,0.481697,0.490974,0.497566,0.488777,0.483162,0.476814,0.460212,0.452155,0.456306,0.457038,0.463386,0.498054,0.531502,0.545418,0.567391,0.58912,0.591073,0.576425,0.560311,0.51368,0.470222,0.44239,0.421149,0.428962,0.465583,0.504646,0.522713,0.521004,0.5066,0.495857,0.490242,0.478523,0.43653,0.376471,0.334966,0.328862,0.354498,0.396979,0.434333,0.452888,0.459724,0.468757,0.471931,0.468513,0.466316,0.467781,0.474617,0.484871,0.49073,0.489509,0.49781,0.505623,0.505867,0.500252,0.491463,0.48365,0.473396,0.470222,0.472175,0.462654,0.450202,0.439704,0.434821,0.441413,0.461677,0.470466,0.463142,0.452155,0.446296,0.436286,0.424811,0.421393,0.412848,0.405524,0.400641,0.406744,0.434577,0.467781,0.467781,0.455329,0.442145,0.433845,0.449226,0.479744,0.512215,0.523445,0.521492,0.52076,0.522713,0.524178,0.523201,0.521981,0.518074,0.507088,0.508064,0.529793,0.542,0.529549,0.506355,0.483406,0.475349,0.475349,0.477058,0.484382,0.500496,0.507088,0.492927,0.472908,0.457771,0.450446,0.449226,0.456794,0.478279,0.491463,0.490974,0.486336,0.487312,0.490974,0.491951,0.488045,0.482185,0.474372,0.469001,0.461433,0.459236,0.458259,0.450935,0.44361,0.443366,0.447517,0.458015,0.473396,0.488777,0.504646,0.520516,0.53492,0.545174,0.554452,0.55787,0.549081,0.525887,0.505867,0.491218,0.48072,0.475349,0.474128,0.466804,0.459236,0.450446,0.440436,0.441169,0.452155,0.461189,0.4607,0.451179,0.443122,0.436774,0.4336,0.429694,0.428717,0.433356,0.437751,0.440925,0.437507,0.435798,0.442145,0.451667,0.460212,0.46656,0.474128,0.481453,0.487068,0.492683,0.498787,0.503182,0.5066,0.509773,0.510994,0.511482,0.509529,0.508309,0.50367,0.49781,0.491707,0.48658,0.48072,0.474128,0.464851,0.456794,0.448249,0.438239,0.427253,0.420417,0.417243,0.420417,0.425299,0.431891,0.441413,0.443854,0.43653,0.431159,0.432868,0.437507,0.439216,0.441657,0.448493,0.461189,0.472175,0.478279,0.484627,0.494881,0.505623,0.507088,0.500496,0.497078,0.494148,0.483406,0.465095,0.446784,0.435798,0.429694,0.434577,0.450935,0.472663,0.491218,0.506355,0.519783,0.529793,0.526619,0.516121,0.509285,0.504402,0.495125,0.485847,0.477058,0.469734,0.462165,0.45069,0.444587,0.44361,0.434577,0.422858,0.400397,0.373297,0.345464,0.331304,0.343999,0.358892,0.373541,0.393317,0.414313,0.448981,0.489509,0.525887,0.560555,0.581796,0.59498,0.604746,0.597665,0.588388,0.575692,0.547372,0.499275,0.458015,0.438727,0.435554,0.444343,0.452399,0.461433,0.469001,0.469734,0.469245,0.466804,0.460212,0.456062,0.448493,0.43946,0.4336,0.433845,0.426032,0.418219,0.418708,0.425055,0.431403,0.439704,0.446296,0.447517,0.450935,0.469001,0.489998,0.499519,0.507332,0.512947,0.506355,0.497566,0.507576,0.510506,0.489998,0.454108,0.400641,0.363287,0.361578,0.395514,0.445319,0.50367,0.547127,0.566415,0.589609,0.609873,0.606699,0.578134,0.526131,0.473152,0.441169,0.428962,0.424811,0.404303,0.372808,0.354498,0.358404,0.369146,0.3794,0.399664,0.421149,0.444343,0.484382,0.529549,0.5608,0.556649,0.536141,0.522713,0.519051,0.515389,0.504646,0.488777,0.474861,0.466316,0.475105,0.491951,0.506355,0.511482,0.518563,0.526864,0.513191,0.486091,0.454108,0.422126,0.404791,0.413581,0.432624,0.458015,0.491707,0.526375,0.547616,0.529305,0.493904,0.464607,0.436774,0.40528,0.386725,0.384771,0.396735,0.429938,0.44947,0.447272,0.451179,0.444099,0.448981,0.461433,0.468269,0.474861,0.489265,0.494881,0.484871,0.47779,0.474128,0.472663,0.467536,0.469734,0.485847,0.502937,0.513436,0.541268,0.571298,0.577646,0.571054,0.563973,0.543221,0.520027,0.481697,0.431647,0.38819,0.367681,0.35523,0.339849,0.347173,0.376471,0.402594,0.408453,0.423346,0.44361,0.456062,0.461921,0.462409,0.45655,0.443122,0.429206,0.428229,0.446784,0.490242,0.516365,0.522713,0.52076,0.525643,0.524178,0.526619,0.524422,0.512459,0.525399,0.550057,0.546883,0.509773,0.466316,0.406256,0.367193,0.367193,0.39527,0.450202,0.528573,0.598398,0.628916,0.625986,0.615976,0.575937,0.540536,0.511238,0.4795,0.451423,0.406012,0.371832,0.391608,0.455329,0.519295,0.542977,0.529061,0.465095,0.385748,0.35523,0.395514,0.439216,0.460456,0.440925,0.416266,0.40528,0.428229,0.463142,0.500008,0.526375,0.537606,0.509773,0.485359,0.473396,0.448493,0.430915,0.443122,0.482429,0.521248,0.524666,0.504402,0.475105,0.4336,0.388678,0.366217,0.385992,0.431891,0.4795,0.528084,0.566171,0.565682,0.529793,0.438727,0.302983,0.200931,0.179934,0.22974,0.299077,0.370123,0.452644,0.551766,0.630137,0.626474,0.516854,0.396002,0.337896,0.355718,0.394781,0.440192,0.518074,0.568368,0.573251,0.530037,0.494881,0.471687,0.466804,0.478523,0.497566,0.510994,0.539315,0.600351,0.684581,0.747814,0.745617,0.70631,0.631113,0.55494,0.552255,0.575448,0.573983,0.535897,0.451179,0.334478,0.250004,0.215091,0.236088,0.320562,0.405768,0.407477,0.349126,0.281743,0.211673,0.180667,0.174319,0.164065,0.134279,0.135256,0.168215,0.193362,0.283452,0.464851,0.673594,0.804211,0.857435,0.862562,0.805188,0.742687,0.698741,0.666514,0.639658,0.611582,0.592294,0.590341,0.619883,0.663584,0.677012,0.690929,0.679698,0.67628,0.683604,0.68751,0.678965,0.624033,0.572519,0.533211,0.491951,0.429938,0.356451,0.32105,0.320073,0.330083,0.338872,0.332525,0.266117,0.181643,0.104738,0.0449226,0.0800793,0.188235,0.305425,0.384527,0.404547,0.382818,0.370611,0.396002,0.445075,0.510018,0.586191,0.667979,0.747814,0.774426,0.77467,0.759777,0.698253,0.615,0.546639,0.492439,0.467536,0.437751,0.412848,0.385016,0.354498,0.326665,0.33521,0.379156,0.374029,0.327886,0.300542,0.247562,0.203861,0.209964,0.243412,0.274418,0.308354,0.324712,0.328862,0.331548,0.350835,0.403326,0.468025,0.520027,0.554208,0.65211,0.804211,0.892836,0.853529,0.758312,0.663584,0.55201,0.451667,0.385016,0.353765,0.353521,0.423102,0.541024,0.632578,0.647227,0.628916,0.60499,0.566903,0.496345,0.407477,0.33228,0.268315,0.219486,0.252201,0.275883,0.260746,0.281987,0.362799,0.38526,0.377691,0.416266,0.505135,0.519051,0.386481,0.293462,0.326421,0.419684,0.535164,0.569589,0.573495,0.598642,0.491463,0.370367,0.353521,0.409918,0.453132,0.453376,0.513924,0.732677,0.926284,0.941421,0.940444,0.940444,
0.543954,0.520027,0.5149,0.510018,0.490974,0.469001,0.458503,0.452888,0.445563,0.433356,0.42237,0.411139,0.407233,0.407477,0.414069,0.426032,0.434577,0.436774,0.442878,0.467781,0.509773,0.548592,0.564218,0.556405,0.540291,0.525887,0.507088,0.484871,0.462898,0.448249,0.439704,0.434577,0.432868,0.438483,0.442634,0.455329,0.475105,0.503182,0.534188,0.55494,0.570565,0.58497,0.598398,0.608164,0.613779,0.610117,0.590585,0.549325,0.498787,0.461189,0.437507,0.427253,0.428962,0.438483,0.449226,0.458015,0.468757,0.479988,0.499763,0.438239,0.449714,0.475837,0.501717,0.52491,0.545418,0.566415,0.583505,0.593027,0.592538,0.573739,0.543221,0.508064,0.485603,0.473152,0.464607,0.45069,0.44361,0.440192,0.438727,0.436774,0.431891,0.434089,0.435798,0.436286,0.435309,0.435309,0.432624,0.430182,0.429938,0.434821,0.453864,0.481209,0.511238,0.542,0.56788,0.577646,0.582528,0.587411,0.585458,0.566903,0.535164,0.498299,0.476814,0.465827,0.458259,0.455573,0.464118,0.471443,0.47071,0.468025,0.464118,0.45948,0.460212,0.467536,0.472663,0.472175,0.462165,0.453864,0.448249,0.444587,0.440681,0.435065,0.4336,0.435309,0.440436,0.448737,0.457282,0.465827,0.47071,0.469001,0.461189,0.456306,0.455085,0.458503,0.460212,0.465339,0.466316,0.469978,0.472663,0.474372,0.474861,0.48072,0.481941,0.485359,0.488777,0.491218,0.490974,0.491463,0.492683,0.488777,0.484138,0.475837,0.467048,0.461677,0.457527,0.455085,0.455329,0.451423,0.447517,0.444831,0.443854,0.445563,0.441901,0.442634,0.445319,0.451179,0.455085,0.458259,0.461189,0.465095,0.471687,0.477546,0.481209,0.484382,0.487312,0.488289,0.491463,0.489754,0.489754,0.489509,0.488533,0.487556,0.487312,0.483406,0.484382,0.48658,0.48658,0.484382,0.478767,0.473396,0.47071,0.468513,0.461921,0.455329,0.449226,0.446784,0.446296,0.448249,0.445563,0.443854,0.444831,0.44654,0.447272,0.444587,0.446296,0.447272,0.447517,0.451667,0.454353,0.457771,0.462654,0.468025,0.477058,0.492439,0.505623,0.51075,0.511238,0.5149,0.513924,0.5149,0.517098,0.518563,0.515877,0.511482,0.503426,0.499519,0.495369,0.489509,0.482918,0.478523,0.474861,0.469978,0.467781,0.462898,0.458503,0.456062,0.457038,0.454597,0.453132,0.445563,0.439704,0.436286,0.434577,0.433112,0.430426,0.431403,0.433112,0.434821,0.438483,0.441657,0.445808,0.449958,0.455085,0.459724,0.464118,0.468025,0.472175,0.47657,0.483894,0.485115,0.483894,0.483406,0.48365,0.484627,0.483406,0.481453,0.481453,0.479011,0.475593,0.471443,0.464607,0.457282,0.451667,0.447761,0.444831,0.442878,0.442145,0.441657,0.441901,0.445563,0.44654,0.447517,0.449714,0.451179,0.453132,0.452644,0.457282,0.461189,0.464118,0.467048,0.471199,0.473884,0.473884,0.472908,0.474372,0.476326,0.479744,0.483894,0.490486,0.499275,0.499763,0.49781,0.497322,0.497322,0.497322,0.495613,0.489754,0.488533,0.48658,0.484871,0.484382,0.482429,0.47779,0.472419,0.468513,0.464118,0.458991,0.454841,0.449958,0.447028,0.446784,0.445563,0.447272,0.447028,0.44947,0.448005,0.446052,0.449714,0.452399,0.454841,0.458259,0.461433,0.465339,0.468025,0.47071,0.473396,0.475349,0.473884,0.472908,0.473884,0.481453,0.483894,0.485603,0.48658,0.484627,0.483406,0.481941,0.478035,0.47779,0.47779,0.477546,0.476814,0.475105,0.473884,0.471199,0.471931,0.476326,0.480476,0.479988,0.475349,0.471931,0.471443,0.468269,0.464851,0.462409,0.460945,0.462165,0.459968,0.462654,0.463874,0.464851,0.466316,0.468269,0.471687,0.474617,0.476814,0.478767,0.482429,0.484627,0.487312,0.489021,0.496345,0.498299,0.499519,0.499519,0.500252,0.500008,0.498787,0.493172,0.492195,0.490242,0.488045,0.485847,0.482918,0.4795,0.47657,0.473152,0.469978,0.46656,0.463142,0.45948,0.457527,0.458259,0.455573,0.453376,0.452155,0.450446,0.450202,0.447272,0.449226,0.451423,0.453376,0.456306,0.458747,0.461189,0.464607,0.467292,0.469978,0.47364,0.47779,0.481453,0.484138,0.489998,0.491463,0.492195,0.493904,0.494636,0.495125,0.49366,0.489509,0.489509,0.488045,0.486336,0.484138,0.480964,0.47779,0.474861,0.470954,0.468269,0.464363,0.460456,0.45655,0.453132,0.45362,0.450935,0.448737,0.447272,0.447028,0.447028,0.444343,0.44654,0.448493,0.451667,0.454108,0.456794,0.460456,0.463386,0.466316,0.469978,0.473152,0.476814,0.48072,0.483894,0.490242,0.491218,0.490486,0.491218,0.490486,0.489754,0.489509,0.486824,0.487556,0.488777,0.488045,0.486091,0.482673,0.478767,0.474617,0.471199,0.467048,0.463142,0.459236,0.456062,0.456062,0.452399,0.448981,0.446784,0.445563,0.445319,0.445319,0.443366,0.445319,0.447761,0.451423,0.454108,0.458747,0.464118,0.467536,0.469734,0.472908,0.474861,0.477546,0.482918,0.487312,0.493172,0.491951,0.491951,0.491707,0.491951,0.491951,0.491463,0.488777,0.487556,0.486336,0.484382,0.481697,0.478035,0.475593,0.472175,0.468757,0.465583,0.460456,0.456062,0.452399,0.454353,0.451667,0.449714,0.448981,0.447272,0.445319,0.442634,0.438483,0.440681,0.44361,0.448981,0.454597,0.460212,0.464607,0.466804,0.468269,0.470466,0.474128,0.478035,0.481209,0.483406,0.489021,0.488289,0.490486,0.490486,0.49073,0.490974,0.487312,0.487312,0.486824,0.485115,0.482918,0.480232,0.477546,0.474617,0.472663,0.470222,0.467048,0.463874,0.460212,0.455573,0.456794,0.453376,0.451179,0.44947,0.448249,0.447761,0.448249,0.445075,0.448493,0.451423,0.454353,0.457527,0.460945,0.462898,0.46363,0.46363,0.46363,0.467536,0.475837,0.486336,0.492927,0.495613,0.491463,0.487556,0.485359,0.484871,0.484627,0.479744,0.479255,0.477546,0.475837,0.475593,0.479744,0.484138,0.486091,0.482918,0.478035,0.475593,0.474128,0.471687,0.467781,0.464607,0.458259,0.454108,0.450202,0.448493,0.449958,0.452399,0.451179,0.452155,0.453864,0.45655,0.459236,0.461433,0.462165,0.462898,0.464118,0.464607,0.467781,0.469245,0.47364,0.478523,0.485603,0.488289,0.490486,0.492195,0.495125,0.498543,0.496345,0.496834,0.494148,0.49073,0.486091,0.481453,0.477058,0.473884,0.470954,0.468269,0.464118,0.4607,0.457527,0.455085,0.456062,0.453132,0.451179,0.449714,0.448981,0.449226,0.449226,0.447028,0.449226,0.451667,0.453132,0.456306,0.458747,0.461189,0.464118,0.466804,0.469734,0.47364,0.477546,0.481941,0.484871,0.491218,0.493416,0.494392,0.494392,0.493172,0.492195,0.488289,0.486824,0.484138,0.479744,0.476081,0.471687,0.468025,0.464118,0.45948,0.454841,0.451179,0.451179,0.45655,0.463142,0.471687,0.473152,0.472663,0.472663,0.47364,0.476326,0.4795,0.481209,0.485847,0.487556,0.48658,0.48365,0.4795,0.476081,0.473396,0.47071,0.469001,0.467048,0.465339,0.465095,0.464607,0.468025,0.467536,0.465827,0.462898,0.461921,0.462165,0.458747,0.45655,0.45362,0.45362,0.460945,0.474861,0.489509,0.499031,0.501228,0.500984,0.495369,0.484871,0.472175,0.458259,0.45069,0.441901,0.436774,0.434821,0.434821,0.436774,0.441657,0.44947,0.464118,0.481209,0.498787,0.512947,0.521981,0.528328,0.529305,0.527108,0.524666,0.521004,0.513436,0.503182,0.492195,0.487556,0.479744,0.476814,0.481697,0.488777,0.496101,0.498787,0.503914,0.509773,0.511482,0.50782,0.494881,0.478523,0.465583,0.457038,0.454108,0.45362,0.454597,0.455329,0.458503,0.463874,0.463386,0.457771,0.45069,0.44361,0.440436,0.438972,0.436042,0.436286,0.438239,0.442634,0.44947,0.455329,0.460212,0.463142,0.463874,0.462898,0.460945,0.4607,0.464118,0.469978,0.479744,0.484382,0.484627,0.481697,0.480476,0.478523,0.47364,0.471931,0.467048,0.45948,0.452888,0.448493,0.448981,0.455085,0.466072,0.476081,0.48365,0.482918,0.477302,0.469001,0.462409,0.452155,0.444587,0.440192,0.439216,0.438239,0.438239,0.438483,0.445075,0.458259,0.474128,0.489509,0.503914,0.516121,0.528084,0.539559,0.546883,0.548348,0.545663,0.54078,0.533944,0.525643,0.51368,0.504158,0.496834,0.489021,0.480476,0.469001,0.462654,0.457771,0.455085,0.453376,0.451911,0.45069,0.448005,0.445563,0.444587,0.444831,0.445075,0.445319,0.44361,0.443122,0.438727,0.435554,0.432624,0.429694,0.427497,0.425788,0.422858,0.425055,0.429206,0.43653,0.452399,0.475837,0.495613,0.511727,0.525399,0.532967,0.533944,0.534432,0.533211,0.528817,0.527596,0.522713,0.514656,0.500984,0.48658,0.476081,0.46949,0.471931,0.473884,0.475593,0.47364,0.470954,0.465827,0.459724,0.456062,0.455085,0.455329,0.453132,0.446784,0.439948,0.438239,0.436286,0.437507,0.441657,0.450446,0.464607,0.478279,0.489754,0.504158,0.519051,0.527352,0.529305,0.526131,0.515877,0.50074,0.485603,0.474861,0.468757,0.46363,0.460945,0.460212,0.463874,0.462654,0.462654,0.462654,0.464118,0.464118,0.462409,0.469734,0.481697,0.498054,0.516365,0.533455,0.54078,0.538338,0.529793,0.515145,0.499275,0.485359,0.470954,0.455573,0.445563,0.436774,0.431647,0.430915,0.432624,0.434333,0.43653,0.43946,0.448005,0.460945,0.476081,0.485115,0.482918,0.469734,0.459236,0.454597,0.45655,0.461921,0.468513,0.47657,0.484627,0.495125,0.499031,0.499763,0.494636,0.487312,0.483162,0.476326,0.474861,0.474128,0.475837,0.47779,0.484138,0.494148,0.503182,0.5066,0.509529,0.510994,0.508064,0.498299,0.485847,0.475837,0.463142,0.455329,0.453132,0.455818,0.456794,0.453376,0.444831,0.440925,0.440925,0.44239,0.44654,0.451179,0.455329,0.458259,0.458503,0.457527,0.458991,0.465827,0.475593,0.48658,0.499519,0.508309,0.514168,0.518074,0.52076,0.521248,0.517098,0.511971,0.503914,0.496834,0.489021,0.478523,0.464363,0.451179,0.44239,0.437751,0.436774,0.43653,0.434821,0.431647,0.431647,0.430671,0.433356,0.441657,0.452644,0.467536,0.478279,0.481697,
0.489021,0.499519,0.508309,0.50782,0.503426,0.498299,0.495613,0.490486,0.478523,0.461433,0.448249,0.43946,0.438727,0.436774,0.438972,0.448249,0.470954,0.504646,0.537606,0.561044,0.583261,0.595956,0.59791,0.5879,0.571298,0.548836,0.524666,0.503182,0.480964,0.464607,0.453132,0.448493,0.444587,0.445075,0.440436,0.437751,0.435798,0.435309,0.434333,0.435554,0.436042,0.437507,0.434089,0.432624,0.434089,0.437995,0.44361,0.450202,0.454597,0.454108,0.455329,0.455085,0.457527,0.468757,0.478279,0.486824,0.494392,0.50367,0.517098,0.497078,0.474372,0.45069,0.434577,0.423835,0.417975,0.422126,0.437263,0.454108,0.481941,0.513924,0.53492,0.542977,0.54493,0.544198,0.528328,0.504402,0.484138,0.472419,0.473884,0.505135,0.556649,0.618173,0.653086,0.647227,0.611826,0.572519,0.532479,0.498299,0.472175,0.453376,0.440436,0.437263,0.433112,0.439216,0.445563,0.447761,0.432136,0.414069,0.39942,0.391363,0.390875,0.407721,0.420172,0.428229,0.441169,0.474617,0.531502,0.58912,0.636728,0.677745,0.712902,0.738781,0.757092,0.770275,0.763684,0.755627,0.732921,0.698985,0.67628,0.657237,0.627207,0.586191,0.542,0.50367,0.47657,0.461433,0.445808,0.425055,0.408942,0.403326,0.407233,0.41529,0.424811,0.435554,0.445319,0.446052,0.444343,0.454841,0.479744,0.484382,0.47364,0.453864,0.445075,0.439216,0.432624,0.432136,0.434821,0.435554,0.442634,0.473396,0.533211,0.590829,0.621836,0.633066,0.622324,0.59205,0.549569,0.5149,0.495125,0.48072,0.475105,0.478767,0.501228,0.540291,0.578134,0.599619,0.591318,0.559091,0.537362,0.534676,0.545907,0.55079,0.538582,0.520027,0.496101,0.479988,0.462165,0.448493,0.440436,0.435798,0.4336,0.427741,0.41944,0.415778,0.410407,0.411383,0.418708,0.423102,0.424323,0.426764,0.4336,0.441901,0.455085,0.466072,0.485115,0.509041,0.526619,0.517586,0.508064,0.494392,0.488289,0.496345,0.520516,0.542733,0.548592,0.563729,0.59791,0.646738,0.691417,0.71754,0.706554,0.634043,0.555673,0.507332,0.479744,0.461189,0.448493,0.434089,0.431647,0.442634,0.453132,0.455573,0.469001,0.504646,0.549569,0.580331,0.596689,0.599374,0.600595,0.602548,0.605966,0.595712,0.572763,0.549081,0.529793,0.5149,0.494392,0.469245,0.446296,0.430182,0.423835,0.420905,0.422126,0.428962,0.445808,0.472419,0.482673,0.477546,0.480476,0.487312,0.492927,0.496834,0.497078,0.500252,0.506111,0.5149,0.531502,0.557382,0.571786,0.574472,0.571786,0.565682,0.537606,0.499031,0.463874,0.441413,0.433845,0.434333,0.440436,0.449226,0.476081,0.508309,0.545418,0.599374,0.640391,0.674083,0.702892,0.709483,0.698741,0.679454,0.65626,0.613779,0.560311,0.517586,0.485603,0.470466,0.462165,0.452399,0.439704,0.427985,0.415045,0.404791,0.39942,0.400397,0.404791,0.409186,0.416022,0.424323,0.434821,0.435065,0.434333,0.430671,0.433112,0.447272,0.492195,0.541268,0.594003,0.640879,0.690929,0.722667,0.745617,0.761975,0.758556,0.734386,0.690929,0.640391,0.595712,0.558358,0.53077,0.519783,0.5149,0.513191,0.501717,0.479011,0.456062,0.432136,0.421881,0.423102,0.425788,0.429938,0.427008,0.429206,0.428717,0.424079,0.426276,0.437018,0.449226,0.456306,0.442878,0.432868,0.431891,0.442878,0.480476,0.537118,0.582528,0.615488,0.625986,0.588144,0.528328,0.501717,0.491951,0.488289,0.473396,0.452399,0.441901,0.436774,0.439216,0.437263,0.428962,0.429694,0.442634,0.468269,0.49781,0.521981,0.536141,0.530282,0.515877,0.504646,0.489754,0.484871,0.486824,0.486336,0.47657,0.461433,0.452644,0.452399,0.467781,0.508309,0.572519,0.624277,0.635264,0.613779,0.572274,0.529549,0.498543,0.48072,0.471199,0.461189,0.458015,0.464363,0.470466,0.466804,0.457282,0.448981,0.449958,0.453376,0.455818,0.468025,0.496345,0.518563,0.517098,0.507332,0.492683,0.474861,0.452399,0.430915,0.42237,0.423102,0.427497,0.430915,0.440192,0.458015,0.477546,0.507332,0.539071,0.558602,0.576913,0.594736,0.601083,0.603525,0.60206,0.596933,0.575937,0.538582,0.500496,0.480232,0.469978,0.459968,0.441901,0.435798,0.439948,0.439704,0.428717,0.420172,0.414069,0.410407,0.40943,0.408453,0.416999,0.427497,0.431891,0.42359,0.423346,0.421393,0.422126,0.433845,0.465827,0.519051,0.578866,0.649668,0.692393,0.724132,0.747082,0.763928,0.776135,0.748058,0.684825,0.614755,0.567636,0.537118,0.512703,0.485603,0.466072,0.449958,0.435798,0.42359,0.421149,0.420417,0.419928,0.416266,0.418952,0.417731,0.417243,0.425544,0.438972,0.47657,0.536141,0.594736,0.635508,0.650156,0.638926,0.613046,0.583505,0.546395,0.495857,0.462165,0.447272,0.447517,0.454841,0.468757,0.517586,0.584482,0.647227,0.689708,0.721447,0.73463,0.715099,0.655528,0.573739,0.519051,0.484627,0.467048,0.459968,0.458015,0.445563,0.435065,0.433112,0.434821,0.432136,0.42945,0.431647,0.447272,0.465095,0.476081,0.478523,0.484382,0.500496,0.51783,0.535897,0.553964,0.571298,0.583749,0.590829,0.58912,0.578378,0.5608,0.547127,0.537362,0.528817,0.52076,0.509041,0.500008,0.489021,0.474861,0.461189,0.450202,0.442878,0.438483,0.437995,0.435798,0.433112,0.433845,0.432624,0.430671,0.431403,0.428717,0.426764,0.427253,0.428962,0.430426,0.430915,0.430182,0.433845,0.436774,0.445563,0.455085,0.462898,0.470954,0.480232,0.489998,0.498787,0.508309,0.517586,0.526864,0.533455,0.542245,0.545418,0.546883,0.547372,0.545174,0.541268,0.533211,0.527596,0.520272,0.512703,0.503914,0.494392,0.48365,0.472908,0.462898,0.454108,0.446784,0.440681,0.43653,0.4336,0.434577,0.431891,0.430182,0.429694,0.429938,0.429938,0.430426,0.429206,0.432624,0.437507,0.44361,0.451179,0.459236,0.468513,0.47779,0.4878,0.497566,0.507576,0.517342,0.526619,0.533455,0.542733,0.546151,0.54786,0.549325,0.548592,0.545174,0.537118,0.531502,0.525154,0.516609,0.506844,0.496345,0.483894,0.473396,0.461921,0.452888,0.444831,0.439216,0.434577,0.431403,0.432624,0.430426,0.428962,0.428473,0.428473,0.42945,0.430182,0.429206,0.432624,0.437751,0.444343,0.452399,0.461921,0.473396,0.484382,0.494636,0.504891,0.5149,0.524178,0.532723,0.543465,0.549325,0.552987,0.554696,0.553719,0.55079,0.54493,0.534676,0.527352,0.518807,0.510018,0.50074,0.490242,0.479011,0.468269,0.457527,0.448737,0.441901,0.436774,0.432624,0.429694,0.431403,0.429206,0.427741,0.427253,0.427741,0.428962,0.430426,0.428717,0.431891,0.436286,0.442145,0.449226,0.458015,0.468025,0.478035,0.488289,0.498787,0.509529,0.518563,0.528084,0.538338,0.543709,0.547127,0.549081,0.549813,0.546883,0.541024,0.529793,0.521736,0.512703,0.503914,0.493904,0.48365,0.473396,0.464118,0.454353,0.447272,0.441169,0.43653,0.432868,0.430915,0.431647,0.429694,0.428717,0.428717,0.428717,0.429694,0.427497,0.429938,0.433845,0.438483,0.444831,0.452644,0.460456,0.46949,0.4795,0.489754,0.499519,0.509773,0.518074,0.526375,0.536629,0.542,0.544686,0.545418,0.544442,0.540536,0.534676,0.524666,0.517098,0.508797,0.498299,0.483406,0.466072,0.453132,0.442145,0.435554,0.430426,0.42652,0.424567,0.423102,0.423835,0.427741,0.427497,0.427008,0.426032,0.426032,0.425299,0.42237,0.425055,0.426764,0.429938,0.432136,0.436042,0.439216,0.445563,0.447517,0.445075,0.444831,0.44947,0.457282,0.467048,0.479744,0.489265,0.498299,0.506844,0.513924,0.51783,0.519539,0.516609,0.5149,0.513191,0.509285,0.503182,0.486336,0.469734,0.456306,0.447028,0.441169,0.437263,0.435554,0.434089,0.432868,0.434333,0.431891,0.430182,0.42945,0.431159,0.433356,0.434577,0.441657,0.450446,0.459236,0.468757,0.479255,0.489509,0.500496,0.51075,0.521736,0.531014,0.540291,0.549813,0.558358,0.5691,0.573251,0.577157,0.57911,0.579599,0.578378,0.574716,0.565194,0.556893,0.54786,0.538582,0.528573,0.518807,0.508553,0.49659,0.484138,0.472419,0.462898,0.454108,0.447028,0.441169,0.438483,0.436042,0.431403,0.430671,0.430915,0.431403,0.429694,0.432624,0.433356,0.433845,0.437263,0.441169,0.448249,0.45655,0.46656,0.476814,0.487556,0.498054,0.509041,0.518318,0.532479,0.539071,0.543954,0.547127,0.548836,0.548836,0.546395,0.538094,0.531991,0.525887,0.518074,0.510262,0.502205,0.493904,0.484627,0.476326,0.467536,0.459236,0.452155,0.445808,0.441657,0.440925,0.437263,0.434577,0.43238,0.431647,0.431891,0.429206,0.432624,0.437018,0.441901,0.447761,0.454597,0.462165,0.470222,0.478767,0.487312,0.495857,0.50367,0.511727,0.518318,0.528084,0.532967,0.537118,0.539559,0.539559,0.538582,0.535164,0.527596,0.522713,0.516854,0.510506,0.50367,0.495613,0.487312,0.479011,0.469978,0.461677,0.45362,0.446784,0.441413,0.437751,0.437995,0.434577,0.432624,0.431647,0.431403,0.431647,0.429694,0.432624,0.43653,0.440436,0.446296,0.453132,0.460212,0.468025,0.476081,0.483894,0.492195,0.499519,0.507332,0.514168,0.52369,0.52784,0.530526,0.531991,0.531746,0.530037,0.526131,0.519295,0.513924,0.507332,0.50074,0.492927,0.485115,0.477058,0.469001,0.461189,0.453132,0.447272,0.441169,0.437263,0.432868,0.433112,0.431159,0.429938,0.42945,0.429694,0.430915,0.432868,0.440925,0.451667,0.462409,0.472419,0.48072,0.488289,0.493416,0.49781,0.500252,0.505135,0.510018,0.513924,0.516854,0.524178,0.526131,0.526864,0.525643,0.523445,0.519783,0.516365,0.507576,0.502205,0.495125,0.487556,0.479744,0.472419,0.464607,0.458747,0.453132,0.447028,0.442145,0.438727,0.435798,0.432868,0.433845,0.431647,0.430671,0.430182,0.429694,0.430426,0.428473,0.431159,0.433356,0.434089,0.438727,0.442878,0.448005,0.453132,0.461677,0.472419,0.484627,0.498787,0.512215,0.522957,0.534188,0.53785,0.538582,0.535653,0.532235,0.528573,0.524666,0.515877,0.509529,
0.473884,0.469001,0.464363,0.460945,0.456306,0.452155,0.458259,0.455085,0.452155,0.449958,0.448005,0.446784,0.444831,0.438972,0.440436,0.44361,0.446784,0.450202,0.45362,0.458015,0.462165,0.467292,0.470954,0.476326,0.481697,0.486091,0.492195,0.504158,0.50782,0.511482,0.514412,0.516365,0.517342,0.511482,0.510262,0.511482,0.510018,0.508309,0.505135,0.501472,0.497078,0.492195,0.484627,0.480232,0.474372,0.469001,0.464118,0.467048,0.462654,0.458991,0.455329,0.452644,0.451423,0.451179,0.438239,0.440436,0.442634,0.445075,0.446784,0.450202,0.454841,0.458259,0.463386,0.469001,0.474861,0.479988,0.486091,0.492195,0.504646,0.508309,0.510506,0.510506,0.509529,0.50782,0.505867,0.494881,0.493172,0.490974,0.488045,0.484382,0.481209,0.477058,0.472908,0.469245,0.465095,0.459968,0.456062,0.452644,0.450446,0.455818,0.452399,0.450446,0.449226,0.447761,0.447272,0.439704,0.441413,0.44361,0.445075,0.448493,0.452399,0.455085,0.459236,0.463142,0.467536,0.471931,0.477058,0.481209,0.488045,0.500984,0.507332,0.511727,0.514168,0.517342,0.517098,0.514656,0.50367,0.501472,0.497566,0.490974,0.483406,0.47657,0.472419,0.466072,0.462165,0.458015,0.454597,0.451423,0.448493,0.44654,0.452399,0.448981,0.44654,0.444343,0.445075,0.447028,0.440436,0.447272,0.454841,0.465827,0.475349,0.491218,0.501472,0.507576,0.511238,0.511482,0.510262,0.506844,0.503182,0.501717,0.50782,0.5066,0.506355,0.506111,0.507332,0.511971,0.51368,0.508064,0.511727,0.512215,0.510994,0.508064,0.503182,0.495613,0.486336,0.477546,0.470222,0.46363,0.458259,0.452399,0.448493,0.45362,0.450446,0.448981,0.449226,0.448981,0.449226,0.44239,0.443854,0.448005,0.45362,0.459968,0.468269,0.473884,0.4795,0.481697,0.484382,0.487312,0.49073,0.495125,0.497566,0.505379,0.505623,0.509041,0.513924,0.521492,0.528084,0.531258,0.522957,0.519295,0.513436,0.504646,0.497078,0.489265,0.482185,0.474861,0.468757,0.462654,0.456306,0.451179,0.448249,0.446784,0.454597,0.455573,0.455329,0.454108,0.452399,0.449714,0.440192,0.440192,0.439948,0.43946,0.440436,0.440681,0.441657,0.440192,0.443122,0.445319,0.449226,0.454108,0.4607,0.469734,0.485847,0.501228,0.516609,0.528328,0.540291,0.549081,0.549813,0.541512,0.53785,0.532967,0.526375,0.515877,0.502937,0.492439,0.484382,0.478279,0.473396,0.467781,0.460212,0.453376,0.451179,0.457771,0.455329,0.453864,0.453376,0.452155,0.450202,0.440681,0.441901,0.443366,0.440925,0.43946,0.441413,0.445319,0.455573,0.467536,0.478767,0.487556,0.492195,0.491463,0.485847,0.486824,0.48072,0.476081,0.474372,0.473884,0.474128,0.480964,0.481697,0.493172,0.508309,0.52491,0.538827,0.542977,0.542245,0.531258,0.519783,0.508064,0.498054,0.486824,0.476326,0.467781,0.469978,0.465827,0.461921,0.458747,0.455818,0.454108,0.443854,0.43946,0.438239,0.439948,0.440925,0.440192,0.44361,0.451667,0.471443,0.495125,0.516121,0.531991,0.538338,0.531014,0.526864,0.519051,0.515633,0.516609,0.523201,0.53492,0.546395,0.54493,0.549081,0.548836,0.546883,0.543954,0.538338,0.528084,0.515633,0.50367,0.493416,0.485603,0.481209,0.475105,0.467292,0.467781,0.460945,0.458747,0.458259,0.460945,0.466072,0.462165,0.463142,0.4607,0.458991,0.456794,0.453376,0.451423,0.451423,0.454841,0.463874,0.469245,0.478523,0.489021,0.499519,0.517586,0.521004,0.521004,0.519051,0.515145,0.508553,0.504158,0.490242,0.482918,0.476814,0.472908,0.469978,0.464363,0.457527,0.454108,0.454108,0.455329,0.458747,0.465583,0.478035,0.491951,0.508797,0.508797,0.504158,0.49659,0.488289,0.481941,0.465095,0.457038,0.452644,0.448981,0.44361,0.440436,0.439948,0.44239,0.443854,0.448249,0.455329,0.471199,0.494148,0.521248,0.55494,0.570565,0.575692,0.574716,0.576669,0.579599,0.583017,0.569345,0.554696,0.541512,0.524422,0.510018,0.500984,0.494636,0.490242,0.4878,0.48658,0.487312,0.488777,0.489754,0.49366,0.482918,0.475349,0.468025,0.457771,0.448981,0.445563,0.440436,0.447272,0.453132,0.461921,0.464851,0.466804,0.468757,0.472663,0.475593,0.4795,0.481941,0.480964,0.481453,0.479011,0.482673,0.476814,0.472663,0.470466,0.468513,0.462409,0.45362,0.441413,0.441657,0.440681,0.442145,0.447272,0.456794,0.47364,0.494148,0.519051,0.538338,0.555673,0.565438,0.572274,0.578866,0.566903,0.546151,0.526864,0.50782,0.492683,0.479744,0.462409,0.456306,0.454597,0.452155,0.444587,0.440436,0.440681,0.444099,0.445808,0.452644,0.466316,0.490242,0.521004,0.55201,0.587167,0.608896,0.61915,0.62623,0.636484,0.640635,0.631113,0.622324,0.604501,0.579355,0.556161,0.536629,0.519783,0.501961,0.489265,0.477546,0.46656,0.45655,0.451667,0.451911,0.462165,0.458015,0.45069,0.441901,0.440436,0.44239,0.447761,0.444831,0.455085,0.472175,0.495125,0.521736,0.554452,0.580087,0.602792,0.614023,0.614511,0.607675,0.597421,0.582528,0.566415,0.552743,0.533211,0.515633,0.504158,0.495369,0.48365,0.463386,0.455573,0.452644,0.449958,0.451423,0.448493,0.445563,0.44239,0.446784,0.451667,0.462654,0.47364,0.474617,0.467048,0.464851,0.457282,0.455085,0.458503,0.460945,0.458259,0.451179,0.441413,0.444099,0.447517,0.455085,0.463874,0.471687,0.489998,0.523201,0.55201,0.578378,0.603525,0.617441,0.626963,0.630869,0.636973,0.62208,0.598154,0.571542,0.546883,0.52784,0.504891,0.493416,0.484627,0.477058,0.470954,0.466316,0.461921,0.460212,0.454108,0.447517,0.441413,0.440436,0.438727,0.436774,0.445075,0.445563,0.44654,0.451423,0.458259,0.464851,0.47364,0.482673,0.499275,0.508309,0.511238,0.5149,0.521981,0.531502,0.54493,0.560555,0.567391,0.562509,0.551278,0.544442,0.543709,0.553231,0.54493,0.529549,0.517342,0.509773,0.509529,0.505135,0.504891,0.502693,0.503914,0.505623,0.500984,0.487556,0.473884,0.461433,0.455085,0.451423,0.447272,0.44654,0.448249,0.454353,0.455329,0.458259,0.461189,0.46656,0.47364,0.480964,0.475105,0.472419,0.466072,0.461921,0.455818,0.453376,0.44947,0.44947,0.44947,0.448737,0.44947,0.452644,0.458747,0.468269,0.48658,0.495613,0.505135,0.515145,0.521492,0.523934,0.522957,0.535897,0.55201,0.563485,0.571542,0.581552,0.589853,0.594247,0.596201,0.595224,0.582773,0.565438,0.543954,0.521004,0.510018,0.492195,0.479255,0.473396,0.471199,0.469978,0.468757,0.467048,0.475349,0.474128,0.470466,0.471199,0.471687,0.467048,0.456306,0.443366,0.437507,0.436042,0.439704,0.448249,0.457527,0.483162,0.505135,0.527352,0.546151,0.556649,0.560311,0.547372,0.545174,0.535409,0.529305,0.532235,0.537362,0.536629,0.543954,0.553475,0.561532,0.561532,0.553475,0.540536,0.523934,0.512215,0.498299,0.48658,0.48365,0.47779,0.474861,0.477058,0.475837,0.484627,0.491951,0.495369,0.49366,0.491951,0.488777,0.486091,0.482429,0.47779,0.471443,0.463386,0.457038,0.451911,0.455329,0.450446,0.444099,0.437507,0.436042,0.438483,0.437263,0.448493,0.467292,0.489021,0.51368,0.540291,0.568856,0.594247,0.610117,0.613779,0.603037,0.575448,0.544442,0.521492,0.51368,0.503182,0.494148,0.48658,0.482673,0.482429,0.492439,0.505379,0.533455,0.558114,0.57496,0.582284,0.584726,0.581796,0.575692,0.565927,0.550057,0.531258,0.516365,0.498299,0.485603,0.480964,0.471687,0.466072,0.463874,0.463874,0.464851,0.466072,0.475837,0.480964,0.479255,0.473396,0.469978,0.466072,0.4607,0.463874,0.473396,0.486336,0.493904,0.498787,0.509773,0.534188,0.552743,0.56495,0.567636,0.560555,0.551034,0.546395,0.533944,0.526131,0.51075,0.495125,0.479988,0.470954,0.461921,0.458015,0.450446,0.451179,0.452155,0.452399,0.453376,0.457038,0.46949,0.46949,0.469978,0.467536,0.466072,0.465095,0.463386,0.479011,0.500496,0.524422,0.550057,0.574472,0.590829,0.594003,0.586923,0.571298,0.546883,0.525399,0.507576,0.494392,0.487556,0.478279,0.470466,0.463142,0.460945,0.45362,0.448249,0.438239,0.439948,0.437263,0.442145,0.444343,0.44947,0.4607,0.484627,0.519539,0.549813,0.577401,0.601328,0.622568,0.638682,0.65333,0.649668,0.637705,0.617441,0.594247,0.569345,0.54078,0.524666,0.509773,0.499031,0.489754,0.480964,0.470466,0.459236,0.450202,0.447517,0.445808,0.448493,0.448981,0.451667,0.461677,0.460945,0.458747,0.455085,0.453376,0.451667,0.451179,0.44361,0.442145,0.438972,0.441901,0.445563,0.450935,0.456062,0.459724,0.458991,0.453864,0.452399,0.451667,0.452399,0.450446,0.457527,0.458991,0.466316,0.481209,0.499763,0.513924,0.515633,0.523445,0.528573,0.533455,0.541024,0.543465,0.53785,0.526864,0.51368,0.505135,0.501961,0.500496,0.496345,0.49366,0.499275,0.497322,0.493172,0.485359,0.480964,0.476326,0.468269,0.451423,0.445319,0.442145,0.440436,0.440436,0.443366,0.447761,0.453132,0.458259,0.463386,0.474372,0.492439,0.51368,0.532723,0.558358,0.569345,0.574228,0.567636,0.554452,0.537362,0.511971,0.495857,0.480476,0.46949,0.461677,0.460212,0.459236,0.457527,0.453376,0.448249,0.44654,0.452399,0.46363,0.47657,0.500252,0.517098,0.531746,0.535409,0.531014,0.527352,0.52491,0.513924,0.5149,0.527596,0.547372,0.567636,0.57911,0.578622,0.572763,0.569833,0.568368,0.562509,0.548592,0.528328,0.516854,0.496345,0.47657,0.46656,0.458259,0.453132,0.453132,0.444587,0.445808,0.447272,0.451423,0.458991,0.476814,0.50782,0.541024,0.568856,0.595712,0.617197,0.635752,0.650889,0.659434,0.656016,0.625498,0.591806,0.561776,0.538582,0.52076,0.505135,0.489021,0.482185,0.478279,0.470466,0.465583,0.457527,0.451179,0.447517,0.446052,0.445075,0.443854,0.444587,0.445563,0.453376,0.458259,0.465827,0.477546,0.493172,0.509041,0.519051,0.507576,0.495125,0.484382,0.478523,0.474861,0.47071,0.467048,
0.411383,0.46949,0.553231,0.65919,0.707774,0.645762,0.536873,0.462898,0.405768,0.354986,0.308843,0.350591,0.444587,0.52076,0.570565,0.620615,0.719738,0.818128,0.833265,0.75465,0.683604,0.722911,0.797864,0.82594,0.813733,0.714611,0.574228,0.484871,0.460456,0.427985,0.360357,0.30811,0.319829,0.375006,0.386969,0.37232,0.377691,0.38233,0.363287,0.287602,0.175784,0.100343,0.0546883,0.0974136,0.173098,0.231205,0.271,0.337407,0.389654,0.416999,0.43238,0.447272,0.47779,0.499275,0.481941,0.477546,0.491218,0.51783,0.548104,0.572519,0.59498,0.616953,0.626963,0.63624,0.657481,0.672862,0.675792,0.670176,0.651377,0.635019,0.61915,0.601572,0.579599,0.548592,0.526131,0.505135,0.48072,0.458015,0.432136,0.414801,0.396002,0.378912,0.370367,0.369879,0.366949,0.37525,0.386725,0.398199,0.418708,0.439948,0.454841,0.465583,0.476326,0.500496,0.518807,0.532479,0.548348,0.563973,0.583261,0.60206,0.617685,0.628428,0.633066,0.629648,0.628183,0.623056,0.613779,0.600839,0.584482,0.561776,0.542977,0.531502,0.494148,0.449226,0.409186,0.389166,0.377203,0.364019,0.361334,0.35523,0.363043,0.373785,0.393072,0.425055,0.453132,0.470954,0.487312,0.501472,0.508064,0.521492,0.530282,0.531014,0.528328,0.524178,0.535164,0.540291,0.538827,0.542245,0.551766,0.566903,0.578622,0.586679,0.592294,0.597421,0.592538,0.5879,0.58912,0.57911,0.56495,0.55079,0.528573,0.510506,0.487312,0.484627,0.468513,0.429206,0.405035,0.38233,0.355718,0.347906,0.330083,0.324224,0.328862,0.333013,0.347906,0.367926,0.382086,0.403815,0.427741,0.445808,0.481453,0.5066,0.521492,0.510262,0.500496,0.520272,0.538582,0.555184,0.572763,0.586679,0.604746,0.620371,0.62208,0.618418,0.610605,0.59205,0.577646,0.559091,0.534676,0.518074,0.494392,0.466804,0.448249,0.458259,0.523201,0.580819,0.580087,0.575937,0.556405,0.521492,0.496834,0.452155,0.418463,0.390143,0.354253,0.343023,0.333013,0.322026,0.33228,0.356451,0.377691,0.420172,0.455329,0.448737,0.417243,0.398688,0.410407,0.420417,0.423102,0.429694,0.427985,0.452644,0.46363,0.478767,0.502449,0.511971,0.4878,0.4795,0.454841,0.391852,0.349371,0.306401,0.271977,0.266361,0.263432,0.257572,0.195804,0.0957046,0.0708019,0.043946,0.00683604,0.00268559,0,0.0183108,0.049073,0.0666514,0.120607,0.181888,0.220462,0.312505,0.41529,0.478279,0.57789,0.644541,0.671641,0.680674,0.683604,0.790784,0.835706,0.848402,0.88307,0.887953,0.864271,0.840345,0.816419,0.805432,0.775647,0.684581,0.640879,0.607431,0.538338,0.472663,0.404791,0.318608,0.29102,0.303227,0.310552,0.261967,0.172122,0.151614,0.126223,0.0825208,0.0664073,0.0363775,0.0429694,0.047364,0.0551766,0.111574,0.161868,0.196048,0.286381,0.400641,0.475837,0.597665,0.684581,0.722667,0.735119,0.740734,0.84303,0.887221,0.901869,0.932876,0.9402,0.9402,0.939467,0.9402,0.9402,0.921401,0.842542,0.790784,0.732677,0.631846,0.542489,0.445808,0.346197,0.309331,0.309331,0.322759,0.281743,0.196536,0.180911,0.158206,0.120607,0.107912,0.0830091,0.0959487,0.114992,0.121828,0.170657,0.214115,0.240726,0.324712,0.415534,0.444587,0.485359,0.528573,0.559091,0.579843,0.600351,0.704356,0.751965,0.768811,0.803723,0.829114,0.851331,0.866224,0.886244,0.90016,0.889906,0.856947,0.832044,0.802258,0.731701,0.666514,0.592294,0.51075,0.463874,0.438483,0.420417,0.371344,0.299809,0.271977,0.243168,0.211917,0.215091,0.211185,0.221683,0.230228,0.22681,0.244877,0.270268,0.291997,0.343023,0.39234,0.413336,0.458259,0.491218,0.508797,0.518563,0.521492,0.578866,0.605234,0.617441,0.643076,0.660655,0.682383,0.682628,0.672618,0.668467,0.634043,0.587411,0.562753,0.528328,0.476814,0.449226,0.419196,0.390875,0.384771,0.38526,0.380865,0.345708,0.30103,0.295171,0.290043,0.279301,0.270756,0.248295,0.237552,0.229984,0.21973,0.241703,0.260258,0.268315,0.261234,0.297856,0.327153,0.39234,0.44361,0.458747,0.459968,0.457282,0.520027,0.55787,0.583017,0.611093,0.625254,0.640879,0.646983,0.649424,0.652598,0.590585,0.51368,0.489998,0.483894,0.476326,0.470222,0.457527,0.44947,0.448981,0.427253,0.38941,0.344976,0.329595,0.344244,0.354742,0.360845,0.348394,0.319585,0.304936,0.30396,0.306401,0.326909,0.348882,0.361089,0.383062,0.41651,0.440681,0.474372,0.498543,0.536629,0.567636,0.581308,0.613291,0.627207,0.641611,0.666514,0.688731,0.707286,0.707042,0.692882,0.678233,0.741222,0.788342,0.774426,0.738537,0.691173,0.646983,0.612802,0.584482,0.570321,0.549081,0.518318,0.478767,0.443122,0.467781,0.510994,0.515145,0.5066,0.488777,0.472175,0.459236,0.438972,0.426276,0.414069,0.401862,0.400885,0.403082,0.406744,0.417487,0.430426,0.466804,0.504891,0.521981,0.546639,0.552743,0.553964,0.563973,0.567147,0.57496,0.573251,0.571054,0.570809,0.563241,0.552987,0.548836,0.533944,0.510994,0.495613,0.471443,0.444099,0.428473,0.417243,0.398444,0.373053,0.335454,0.2439,0.215579,0.214359,0.217044,0.220462,0.233646,0.249027,0.266117,0.290288,0.311284,0.32813,0.350103,0.370123,0.388434,0.410407,0.422614,0.42945,0.439704,0.455818,0.481697,0.500252,0.515145,0.530037,0.542977,0.554208,0.562264,0.542245,0.542977,0.552987,0.555673,0.559091,0.560067,0.553475,0.546151,0.537606,0.519783,0.499031,0.475349,0.455329,0.434821,0.41529,0.408698,0.403815,0.39234,0.376715,0.356939,0.341802,0.328374,0.321538,0.320806,0.319341,0.3252,0.339361,0.35523,0.363531,0.382574,0.403326,0.425788,0.446296,0.466072,0.493172,0.511971,0.519295,0.524422,0.536141,0.55201,0.556893,0.550546,0.549325,0.552987,0.562264,0.576669,0.579843,0.572763,0.563485,0.551522,0.537362,0.527108,0.515145,0.500252,0.477546,0.452155,0.437751,0.424567,0.41529,0.409674,0.409186,0.416999,0.422614,0.414801,0.402106,0.393561,0.390631,0.401862,0.417487,0.428962,0.44361,0.454353,0.465095,0.478279,0.475105,0.47779,0.487556,0.507576,0.523934,0.536385,0.552255,0.56202,0.562997,0.559091,0.556649,0.554208,0.602304,0.620371,0.613535,0.60206,0.584237,0.572763,0.565682,0.555917,0.546151,0.528817,0.506844,0.493172,0.472419,0.455573,0.437751,0.424079,0.406989,0.386236,0.368414,0.344732,0.329107,0.326177,0.331304,0.338628,0.349371,0.366949,0.383062,0.395026,0.410895,0.429694,0.454353,0.469978,0.477302,0.493416,0.510994,0.528084,0.545907,0.562509,0.574228,0.582528,0.585458,0.589609,0.588144,0.575692,0.556649,0.5337,0.500008,0.48658,0.479744,0.469978,0.448005,0.423346,0.409186,0.405768,0.410407,0.413092,0.410895,0.413336,0.415778,0.415045,0.412848,0.411627,0.418463,0.437018,0.45362,0.445319,0.427008,0.414557,0.416266,0.424567,0.430915,0.44654,0.460212,0.47779,0.504402,0.522713,0.541268,0.558114,0.567391,0.570565,0.572519,0.571054,0.571298,0.570809,0.568368,0.560555,0.548836,0.536629,0.525154,0.501961,0.484627,0.469245,0.454841,0.437751,0.412848,0.387701,0.369879,0.352789,0.333989,0.320073,0.312505,0.307866,0.298833,0.300542,0.305425,0.305669,0.30518,0.307622,0.311772,0.321294,0.335454,0.363775,0.408453,0.457038,0.504891,0.554452,0.602792,0.640146,0.667247,0.681895,0.683116,0.673594,0.665293,0.658946,0.646494,0.630137,0.612558,0.58497,0.552987,0.52784,0.507088,0.493416,0.4795,0.463386,0.45362,0.443854,0.431891,0.420172,0.409186,0.39649,0.3794,0.36817,0.362554,0.357183,0.349859,0.351324,0.35523,0.357427,0.366217,0.378668,0.393317,0.410407,0.430671,0.460212,0.480232,0.490974,0.505867,0.522469,0.537362,0.546883,0.551522,0.542977,0.540291,0.543954,0.548348,0.548836,0.544686,0.542489,0.549081,0.551278,0.55494,0.552255,0.543221,0.521981,0.50074,0.482918,0.467292,0.452644,0.450446,0.444099,0.433845,0.422614,0.408942,0.393561,0.375494,0.360601,0.364752,0.372564,0.380133,0.391608,0.396735,0.396979,0.405035,0.420905,0.437995,0.45069,0.469978,0.488289,0.507088,0.527108,0.535164,0.540536,0.537606,0.5337,0.533944,0.534188,0.52491,0.525154,0.530526,0.529793,0.517342,0.508064,0.502205,0.500984,0.497322,0.49366,0.497566,0.479744,0.460456,0.448005,0.431647,0.410163,0.391119,0.381109,0.370855,0.351568,0.343511,0.356207,0.386236,0.410407,0.415534,0.416754,0.419928,0.418708,0.41944,0.432868,0.431891,0.448005,0.458991,0.469978,0.487312,0.500496,0.522713,0.55494,0.591073,0.622324,0.647715,0.664561,0.665049,0.645762,0.621347,0.610849,0.59791,0.571298,0.536873,0.501961,0.47364,0.447272,0.413336,0.386725,0.370123,0.358648,0.354498,0.350835,0.340093,0.325444,0.312016,0.295171,0.291997,0.300542,0.321538,0.350347,0.386236,0.417243,0.425055,0.40235,0.385016,0.381353,0.392828,0.404547,0.430671,0.472419,0.528573,0.60499,0.683848,0.72755,0.733898,0.708751,0.659678,0.605966,0.574716,0.564462,0.57789,0.603037,0.619638,0.621592,0.602792,0.577646,0.551522,0.520516,0.484138,0.446296,0.411872,0.381598,0.354742,0.330083,0.311528,0.302495,0.299077,0.308843,0.315435,0.327642,0.336919,0.349371,0.361822,0.374762,0.387945,0.410407,0.438727,0.474372,0.505623,0.525887,0.541024,0.557626,0.578622,0.596689,0.60499,0.60206,0.600107,0.597177,0.593027,0.585458,0.572274,0.553475,0.531991,0.51075,0.500496,0.493172,0.486824,0.475593,0.458991,0.448981,0.435309,0.413825,0.388434,0.363287,0.346929,0.33814,0.338384,0.338872,0.337652,0.33521,0.333501,0.338628,0.347662,0.361089,0.376715,0.394049,0.417975,0.457038,0.494148,0.520516,0.540291,0.555428,0.559579,0.559823,0.563241,0.567636,0.568856,0.571298,0.5608,0.532967,0.510262,0.507332,0.515145,0.519539,0.525399,0.535409,0.51368,0.485359,0.477546,0.501961,0.52076,0.504158,0.462409,0.416022,0.375982,
0.351812,0.328374,0.312749,0.309087,0.314458,0.326909,0.34107,0.363531,0.38526,0.41236,0.432624,0.448005,0.47364,0.482673,0.478767,0.484382,0.503182,0.533211,0.582284,0.628916,0.657481,0.677745,0.694835,0.70045,0.693858,0.672129,0.646738,0.615488,0.583017,0.553964,0.520272,0.4795,0.442145,0.420172,0.41529,0.41944,0.42359,0.410651,0.390143,0.370855,0.353765,0.340826,0.335698,0.338872,0.344244,0.349126,0.353521,0.359869,0.416999,0.448249,0.463142,0.468025,0.475593,0.488533,0.498543,0.503914,0.510018,0.511971,0.503426,0.495125,0.504646,0.531014,0.552743,0.555673,0.548836,0.538094,0.534432,0.534676,0.538338,0.544198,0.544198,0.533944,0.515633,0.492439,0.467536,0.448249,0.430426,0.415534,0.40528,0.403815,0.408698,0.412604,0.403326,0.383795,0.369635,0.362066,0.361822,0.368658,0.377203,0.391363,0.401617,0.407721,0.412604,0.416266,0.42945,0.454841,0.475837,0.486091,0.495857,0.510506,0.520516,0.53077,0.54493,0.560311,0.569833,0.569589,0.565438,0.566171,0.564462,0.560067,0.552743,0.549325,0.531991,0.499763,0.467536,0.445319,0.429694,0.413581,0.413336,0.43238,0.437751,0.428962,0.41236,0.404059,0.405524,0.4065,0.394293,0.379156,0.374273,0.377691,0.385992,0.397223,0.407477,0.416266,0.428473,0.441169,0.454841,0.464607,0.474617,0.4878,0.507576,0.524422,0.537118,0.553964,0.566903,0.573251,0.577401,0.585214,0.591073,0.58204,0.556405,0.535897,0.51783,0.501228,0.488289,0.489509,0.496834,0.491707,0.482918,0.468513,0.443854,0.408209,0.375494,0.357916,0.350103,0.357427,0.369146,0.371099,0.377691,0.384527,0.389166,0.398932,0.418219,0.431647,0.439216,0.460212,0.477546,0.489754,0.505867,0.520272,0.525643,0.523445,0.521248,0.520027,0.522469,0.539315,0.559823,0.563241,0.557382,0.554208,0.54493,0.528573,0.525154,0.545663,0.558358,0.547127,0.519295,0.492439,0.460456,0.419196,0.385992,0.37232,0.377935,0.398932,0.418952,0.434333,0.431159,0.407721,0.379889,0.372564,0.382086,0.391852,0.398932,0.406744,0.417731,0.429694,0.436774,0.443854,0.455085,0.466804,0.479744,0.496345,0.510994,0.521492,0.532479,0.544686,0.554452,0.553475,0.55494,0.560555,0.569833,0.577646,0.579355,0.563485,0.53492,0.508064,0.485603,0.472419,0.463386,0.447517,0.424079,0.402594,0.392096,0.391608,0.410407,0.430915,0.427253,0.410163,0.401373,0.398199,0.402838,0.404303,0.405524,0.413092,0.427985,0.438239,0.441413,0.444831,0.451667,0.461189,0.471443,0.481209,0.491707,0.500496,0.506111,0.508064,0.507332,0.515633,0.529549,0.557626,0.578378,0.578622,0.561288,0.54493,0.544442,0.542,0.54078,0.532967,0.517586,0.496101,0.473396,0.453132,0.445075,0.442634,0.432624,0.416266,0.404791,0.399664,0.383795,0.365484,0.352544,0.346441,0.352544,0.370367,0.389654,0.393805,0.393561,0.409186,0.440925,0.466316,0.459724,0.426764,0.421881,0.459236,0.503426,0.531502,0.553719,0.566659,0.565438,0.5608,0.557626,0.564462,0.591318,0.60914,0.596689,0.570565,0.543954,0.521492,0.502205,0.490242,0.481209,0.473396,0.462165,0.44654,0.427497,0.408209,0.387945,0.373785,0.369635,0.37232,0.369146,0.359869,0.359625,0.366949,0.375738,0.382818,0.397711,0.403815,0.405524,0.414313,0.44654,0.491218,0.520027,0.542733,0.572274,0.582528,0.571542,0.556649,0.553964,0.556405,0.551766,0.547372,0.543709,0.548836,0.556161,0.563241,0.564706,0.550301,0.523445,0.501961,0.482673,0.4607,0.441413,0.423835,0.392828,0.362066,0.358648,0.37232,0.394293,0.426032,0.44947,0.448249,0.430426,0.411627,0.388434,0.375006,0.373785,0.390875,0.415778,0.435065,0.451179,0.466316,0.475593,0.480476,0.486336,0.496345,0.50367,0.509041,0.518807,0.53492,0.544442,0.555917,0.566659,0.568368,0.563485,0.553964,0.544442,0.531746,0.51075,0.489509,0.470954,0.464607,0.469245,0.486336,0.502693,0.498543,0.475593,0.445563,0.418463,0.402838,0.394293,0.389166,0.385016,0.375494,0.366949,0.363287,0.369635,0.387213,0.412604,0.425299,0.426032,0.429206,0.439948,0.459236,0.46949,0.471687,0.467048,0.470222,0.499763,0.539559,0.579843,0.61622,0.638682,0.641123,0.615976,0.584237,0.561044,0.540536,0.521248,0.513436,0.515633,0.506844,0.488777,0.482673,0.48072,0.471931,0.452888,0.435065,0.418219,0.403326,0.390143,0.378912,0.365484,0.348882,0.336919,0.339361,0.353277,0.370367,0.38526,0.402106,0.42652,0.444587,0.444587,0.439216,0.448493,0.475349,0.501228,0.522225,0.538094,0.53492,0.53492,0.544198,0.556161,0.56788,0.58204,0.586191,0.576181,0.56202,0.54493,0.528817,0.513191,0.500984,0.494392,0.486091,0.471687,0.445563,0.425544,0.419196,0.423835,0.425788,0.411627,0.389654,0.371099,0.364752,0.363287,0.370855,0.377935,0.377203,0.373785,0.379156,0.394293,0.404791,0.408942,0.411872,0.419196,0.433845,0.4607,0.493416,0.542,0.581308,0.596445,0.600107,0.605722,0.613291,0.622568,0.622812,0.612558,0.602304,0.596689,0.585702,0.557137,0.530526,0.511482,0.49659,0.480476,0.464363,0.449958,0.433356,0.417243,0.402594,0.384039,0.369879,0.368902,0.377691,0.377691,0.364752,0.347417,0.342046,0.35108,0.365972,0.375738,0.382086,0.404791,0.428473,0.441901,0.456794,0.480476,0.512947,0.535897,0.53492,0.521004,0.511482,0.521248,0.545174,0.563485,0.573251,0.57203,0.564706,0.55494,0.545663,0.539315,0.542245,0.541756,0.538827,0.529305,0.506355,0.480964,0.460212,0.444831,0.436042,0.436286,0.430426,0.412116,0.384771,0.365484,0.353033,0.352544,0.361334,0.364508,0.367437,0.379889,0.399176,0.43238,0.458015,0.463386,0.457038,0.45655,0.455818,0.459968,0.468269,0.480232,0.492683,0.512215,0.531746,0.551522,0.563729,0.566903,0.56788,0.572274,0.568368,0.560555,0.551766,0.550546,0.547127,0.537606,0.526619,0.504646,0.481453,0.467781,0.454353,0.427253,0.400885,0.38526,0.371832,0.358648,0.35938,0.377203,0.401373,0.416266,0.419196,0.406989,0.388678,0.382086,0.391119,0.406256,0.420661,0.437751,0.459968,0.474617,0.487068,0.504402,0.520272,0.531991,0.541268,0.551278,0.558602,0.563241,0.564706,0.566415,0.569833,0.568124,0.556649,0.543465,0.526864,0.512459,0.50782,0.496101,0.473884,0.455085,0.443854,0.437751,0.428962,0.417243,0.408698,0.403571,0.393072,0.387945,0.396735,0.404303,0.40528,0.408698,0.408453,0.403571,0.396979,0.404547,0.422614,0.438483,0.454841,0.465827,0.474617,0.483406,0.493416,0.507088,0.521492,0.528573,0.528328,0.540047,0.557137,0.565194,0.567147,0.563485,0.560067,0.55494,0.538338,0.512947,0.489021,0.470466,0.46656,0.482429,0.501472,0.496101,0.469245,0.449958,0.442145,0.431159,0.406989,0.384039,0.364996,0.353765,0.354009,0.369146,0.3794,0.384527,0.383062,0.388678,0.415045,0.435554,0.434577,0.435309,0.447761,0.468025,0.481453,0.489754,0.505867,0.526131,0.541024,0.547127,0.552743,0.568612,0.587411,0.590829,0.576425,0.55787,0.546639,0.543465,0.536873,0.520272,0.498787,0.48072,0.471687,0.469245,0.465095,0.462654,0.461921,0.453376,0.440192,0.429694,0.427008,0.422614,0.398199,0.368902,0.353765,0.352544,0.357671,0.367437,0.36939,0.380621,0.409674,0.4336,0.452644,0.476326,0.49366,0.501717,0.502937,0.504646,0.512215,0.520027,0.531258,0.542,0.548836,0.55494,0.562264,0.565927,0.560311,0.551034,0.538827,0.528328,0.520516,0.506355,0.487312,0.461677,0.431647,0.404303,0.396735,0.408453,0.411872,0.409674,0.414557,0.436042,0.455818,0.455573,0.443366,0.427253,0.420905,0.425788,0.434821,0.435798,0.426276,0.418219,0.420172,0.424079,0.433112,0.446296,0.462898,0.477058,0.490486,0.504891,0.520272,0.543709,0.564462,0.563485,0.55201,0.54786,0.552743,0.559823,0.5608,0.546395,0.520272,0.497322,0.49659,0.500008,0.488045,0.458747,0.427497,0.408209,0.398688,0.396979,0.396735,0.394781,0.385748,0.384039,0.390875,0.405524,0.427985,0.457527,0.458503,0.438239,0.427985,0.43653,0.447272,0.453132,0.454108,0.452155,0.458259,0.469978,0.48072,0.489021,0.493172,0.495125,0.509041,0.524178,0.544198,0.543465,0.532723,0.529793,0.547372,0.5608,0.556649,0.562264,0.562997,0.55079,0.52491,0.488289,0.455329,0.436286,0.433845,0.430426,0.423346,0.416266,0.409186,0.401617,0.393561,0.383795,0.373297,0.357916,0.352789,0.377691,0.41236,0.427253,0.44361,0.452155,0.457527,0.452399,0.448493,0.457282,0.472908,0.490486,0.507576,0.519051,0.530526,0.540047,0.551034,0.557626,0.556893,0.552499,0.554208,0.559579,0.565927,0.565438,0.5608,0.543465,0.524422,0.509529,0.498543,0.488045,0.479011,0.466804,0.445808,0.416266,0.393805,0.381353,0.374273,0.366461,0.362066,0.364996,0.374273,0.373785,0.36939,0.368414,0.375738,0.385992,0.398444,0.414801,0.43653,0.465095,0.481941,0.488045,0.502937,0.525399,0.538827,0.543954,0.546395,0.54078,0.535409,0.5337,0.545418,0.573739,0.596201,0.5879,0.558358,0.530037,0.513191,0.512947,0.505135,0.491463,0.472419,0.45362,0.443366,0.43653,0.429206,0.431891,0.436042,0.42945,0.412604,0.395026,0.381842,0.37818,0.373297,0.37525,0.384771,0.385016,0.378424,0.388678,0.420172,0.442634,0.43946,0.440925,0.459236,0.488045,0.525399,0.555184,0.566903,0.559823,0.566903,0.582284,0.580331,0.575204,0.570321,0.56495,0.550057,0.534432,0.526131,0.521004,0.512947,0.508553,0.504402,0.492927,0.474617,0.453132,0.437263,0.425299,0.423835,0.423835,0.4065,0.379644,0.363043,0.352544,0.344488,0.344488,0.364263,0.395758,0.413336,0.418219,0.420905,0.42945,0.44361,0.454841,0.468269,0.482673,0.494392,0.505623,0.515389,0.524178,0.530037,0.536629,0.54493,0.552499,0.563485,0.572763,0.569589,0.553719,0.538338,0.524666,0.510994,0.503914,0.495857,0.481697,0.469245,0.469001,0.463142,0.460212,0.451423,0.429206,0.404303,
