0.460456,0.476326,0.534432,0.595224,0.619638,0.616953,0.588632,0.550057,0.506111,0.464118,0.428229,0.4065,0.399176,0.393805,0.393805,0.384771,0.370123,0.355718,0.350835,0.361089,0.382574,0.407965,0.4336,0.455818,0.472419,0.489021,0.505379,0.51783,0.525643,0.526375,0.528084,0.526619,0.526131,0.522957,0.519539,0.515633,0.513191,0.506111,0.501717,0.497078,0.493172,0.487556,0.482673,0.47779,0.474861,0.469001,0.464363,0.460456,0.457771,0.456062,0.456062,0.45655,0.455818,0.457771,0.459236,0.4607,0.461677,0.463386,0.467048,0.469978,0.472663,0.474861,0.477058,0.479744,0.481941,0.484871,0.489265,0.493416,0.492195,0.493416,0.490974,0.495857,0.503182,0.515145,0.531502,0.543954,0.549081,0.543709,0.548104,0.560311,0.559579,0.536385,0.50367,0.473152,0.447517,0.418219,0.390875,0.379644,0.380377,0.384039,0.381109,0.3794,0.384039,0.387701,0.385992,0.381842,0.384771,0.391852,0.400885,0.411383,0.421881,0.432868,0.441657,0.450202,0.458503,0.467536,0.481209,0.495125,0.504891,0.514168,0.525399,0.535164,0.542733,0.541024,0.534432,0.524422,0.510994,0.50367,0.506111,0.516854,0.518074,0.508797,0.495369,0.482429,0.467048,0.449714,0.436774,0.431891,0.435065,0.446784,0.462654,0.475105,0.47657,0.462409,0.45362,0.454353,0.459236,0.474861,0.494636,0.516854,0.542977,0.570321,0.573007,0.55494,0.527596,0.497078,0.461677,0.429206,0.405524,0.384771,0.366217,0.353521,0.350347,0.36231,0.385992,0.426276,0.480964,0.525154,0.550057,0.556405,0.550057,0.537606,0.515877,0.490974,0.478279,0.469978,0.472175,0.482429,0.488777,0.480476,0.461189,0.439216,0.415045,0.393072,0.383062,0.384283,0.391119,0.388678,0.389899,0.401617,0.422858,0.448249,0.470954,0.488045,0.501717,0.510994,0.512459,0.508064,0.50367,0.500984,0.501961,0.510262,0.524178,0.53077,0.529305,0.525154,0.52369,0.526131,0.525154,0.513191,0.497078,0.498054,0.519051,0.527352,0.521981,0.511238,0.504402,0.488289,0.470954,0.448981,0.423835,0.408453,0.397467,0.386236,0.376471,0.371832,0.404303,0.447272,0.467781,0.472663,0.463874,0.441901,0.440436,0.50074,0.566903,0.601816,0.596201,0.567391,0.522225,0.478035,0.442878,0.417243,0.410651,0.417975,0.431891,0.436774,0.426764,0.402106,0.381109,0.374273,0.385992,0.409674,0.443122,0.489265,0.529061,0.552499,0.588388,0.635996,0.665293,0.658213,0.621836,0.577157,0.536385,0.515633,0.497322,0.473884,0.457771,0.479744,0.509529,0.495857,0.424811,0.334234,0.26392,0.204105,0.152346,0.145266,0.19263,0.275883,0.352056,0.398199,0.417975,0.439948,0.454841,0.453132,0.447761,0.481697,0.530037,0.561044,0.584482,0.588388,0.577646,0.5691,0.578378,0.607675,0.662119,0.715099,0.718761,0.660166,0.598398,0.559335,0.520272,0.475837,0.42652,0.371832,0.318608,0.285893,0.269291,0.253178,0.244633,0.260746,0.329595,0.40528,0.454597,0.52076,0.582284,0.61622,0.621836,0.598154,0.559091,0.50074,0.438727,0.386969,0.33106,0.289067,0.272709,0.269535,0.277104,0.311284,0.359136,0.397223,0.422858,0.451179,0.494881,0.541024,0.576669,0.572274,0.550546,0.545418,0.563729,0.582528,0.594491,0.606455,0.614755,0.622324,0.628672,0.645029,0.644785,0.644053,0.653086,0.662364,0.623301,0.548836,0.454841,0.365728,0.314214,0.302007,0.300053,0.297368,0.274174,0.261967,0.302251,0.388678,0.525154,0.661631,0.749279,0.786633,0.766857,0.704356,0.621103,0.583749,0.619638,0.691417,0.768811,0.827405,0.830823,0.751476,0.579843,0.417243,0.269047,0.116213,0.000976577,0.000488289,0.000244144,0.000244144,0.000244144,0.000244144,0,0.0207523,0.0922866,0.178958,0.300542,0.431647,0.541268,0.630381,0.679698,0.673594,0.6421,0.604501,0.576425,0.540047,0.474617,0.406012,0.392096,0.423102,0.458503,0.505867,0.552743,0.57203,0.559091,0.571786,0.627695,0.715587,0.790539,0.843763,0.889906,0.887953,0.817884,0.708263,0.58912,0.472175,0.413825,0.41651,0.462409,0.53077,0.572519,0.55201,0.50367,0.458503,0.377203,0.318608,0.281498,0.224369,0.183597,0.17969,0.21265,0.301274,0.410163,0.492439,0.577401,0.630137,0.63331,0.608896,0.57203,0.481941,0.361822,0.271733,0.263676,0.296147,0.306645,0.300786,0.289799,0.299077,0.331792,0.409918,0.504158,0.558846,0.583505,0.608896,0.634775,0.639414,0.649912,0.645762,0.605478,0.559335,0.561776,0.598154,0.632578,0.646738,0.640391,0.649912,0.701671,0.774426,0.814221,0.806897,0.751232,0.673106,0.609384,0.536385,0.427253,0.267338,0.134279,0.0661631,0.0446784,0.0458991,0.067628,0.126955,0.180179,0.247074,0.34107,0.453132,0.574228,0.665537,0.69337,0.703868,0.70631,0.699229,0.679942,0.648203,0.596201,0.552499,0.556161,0.577401,0.55494,0.511482,0.477058,0.479744,0.515633,0.532235,0.530282,0.531258,0.51783,0.47071,0.403326,0.364263,0.376715,0.409674,0.40943,0.375738,0.35523,0.344244,0.329107,0.352789,0.442634,0.537362,0.5608,0.495369,0.385992,0.317632,0.30518,0.339117,0.397955,0.445808,0.460945,0.469001,0.462654,0.419928,0.380133,0.339605,0.317388,0.361334,0.434333,0.479988,0.515145,0.5879,0.656748,0.683604,0.675303,0.62501,0.571298,0.545418,0.511482,0.453376,0.391363,0.350835,0.326177,0.282475,0.285893,0.33521,0.403571,0.46363,0.507576,0.524178,0.494148,0.436042,0.460212,0.549081,0.651865,0.728283,0.75172,0.768322,0.823255,0.865492,0.833509,0.719493,0.565194,0.421637,0.27808,0.145266,0.0449226,0.000488289,0,0,0.0451667,0.140383,0.232425,0.33521,0.431159,0.531746,0.601328,0.619883,0.599374,0.575937,0.5879,0.606943,0.598154,0.559823,0.495613,0.445563,0.409186,0.385504,0.390875,0.416266,0.458991,0.528573,0.566415,0.543465,0.494392,0.471199,0.472908,0.466316,0.457771,0.445563,0.443366,0.455085,0.468025,0.447272,0.412848,0.392584,0.395026,0.430182,0.487312,0.54078,0.576425,0.591806,0.593759,0.590341,0.581552,0.570321,0.55079,0.515145,0.477058,0.455085,0.435554,0.418952,0.422858,0.435309,0.444831,0.450202,0.456794,0.469001,0.479255,0.4878,0.491951,0.488045,0.48658,0.493172,0.512947,0.53492,0.541756,0.528817,0.51075,0.502937,0.506111,0.494392,0.458991,0.438483,0.437995,0.447761,0.460456,0.465827,0.464607,0.44947,0.441901,0.446296,0.458747,0.464607,0.459968,0.464118,0.488533,0.521981,0.535409,0.533211,0.522957,0.502205,0.47657,0.444831,0.419196,0.405035,0.422614,0.468269,0.506111,0.521248,0.512215,0.508064,0.511238,0.504891,0.480476,0.457771,0.451423,0.517342,0.624521,0.745373,0.846693,0.869642,0.802991,0.679454,0.532967,0.40235,0.294438,0.195071,0.0898451,0.0529793,0.0988785,0.142336,0.190188,0.25977,0.335943,0.416266,0.476814,0.506111,0.521248,0.572274,0.668223,0.759777,0.804211,0.781262,0.680919,0.542733,0.430182,0.342046,0.284916,0.255863,0.188968,0.105715,0.06421,0.113283,0.210697,0.32105,0.427497,0.490486,0.510262,0.527596,0.546639,0.558602,0.558846,0.523445,0.476326,0.493172,0.540291,0.561532,0.545663,0.498787,0.441657,0.396735,0.401617,0.440681,0.5066,0.574228,0.613535,0.650401,0.687999,0.708263,0.680919,0.58497,0.463874,0.370855,0.304936,0.284672,0.301518,0.293217,0.27686,0.267826,0.310796,0.354742,0.378424,0.376226,0.374762,0.393805,0.4336,0.499275,0.564462,0.609628,0.641611,0.675059,0.716075,0.741466,0.728038,0.702159,0.646983,0.606699,0.63331,0.686046,0.690929,0.669444,0.613779,0.512703,0.391363,0.2981,0.235599,0.200443,0.186038,0.170169,0.166018,0.175051,0.197269,0.247318,0.311772,0.376959,0.431647,0.489509,0.582528,0.670176,0.697032,0.647227,0.593759,0.525887,0.455085,0.403082,0.361089,0.321782,0.284184,0.319097,0.447761,0.561044,0.632578,0.672129,0.667979,0.624765,0.566903,0.526864,0.514656,0.506844,0.456794,0.359136,0.298344,0.304448,0.344976,0.375982,0.367193,0.346929,0.384771,0.458747,0.503182,0.49659,0.454353,0.40235,0.349859,0.296391,0.271489,0.312505,0.364752,0.408209,0.465095,0.520027,0.574716,0.621103,0.640391,0.631113,0.630381,0.648447,0.644785,0.60621,0.547372,0.506844,0.499031,0.490974,0.494148,0.511727,0.49781,0.474861,0.476081,0.485115,0.488045,0.534432,0.613779,0.674083,0.67921,0.633066,0.555917,0.464363,0.388678,0.363531,0.412848,0.474861,0.502449,0.506355,0.4607,0.36817,0.284428,0.245121,0.237797,0.2981,0.443366,0.593271,0.655283,0.631601,0.614023,0.590829,0.573495,0.558846,0.504646,0.361089,0.227543,0.188968,0.173098,0.113771,0.0637217,0.0725109,0.145022,0.220462,0.271244,0.339117,0.46656,0.594491,0.68043,0.720958,0.71754,0.695323,0.657725,0.623056,0.58497,0.561532,0.550546,0.573739,0.616709,0.65333,0.68629,0.725841,0.74757,0.707042,0.606699,0.54786,0.500496,0.466316,0.468269,0.482918,0.458259,0.356695,0.259281,0.208743,0.150393,0.0661631,0.018555,0.0366217,0.126711,0.243412,0.349615,0.489021,0.611582,0.661143,0.665049,0.666514,0.681163,0.688243,0.694835,0.701671,0.665537,0.568368,0.457282,0.413336,0.440681,0.475837,0.509773,0.512215,0.474372,0.424811,0.385748,0.410651,0.455573,0.46656,0.435554,0.383795,0.370855,0.409918,0.454597,0.481697,0.479988,0.458503,0.460212,0.45069,0.46363,0.502693,0.511727,0.497566,0.479744,0.458991,0.448493,0.428473,0.406256,0.44239,0.518318,0.57203,0.55494,0.487312,0.453132,0.446296,0.470222,0.503426,0.510018,0.462165,0.400153,0.39649,0.430426,0.488533,0.526375,0.504891,0.464607,0.427985,0.401862,0.417975,0.444831,0.461921,0.482429,0.511971,0.521736,0.502205,0.465339,0.440681,0.4607,0.524666,0.584726,0.600351,0.577157,0.539315,0.517586,0.526131,0.524666,0.496834,0.462409,0.472908,0.500984,0.496834,0.474128,0.446296,0.40943,0.353765,0.312505,0.326177,0.374517,0.438727,0.501961,0.534676,0.534432,0.488289,
0.599863,0.628183,0.627451,0.621836,0.634775,0.654307,0.650889,0.628672,0.585946,0.52076,0.453376,0.422858,0.385016,0.356451,0.35938,0.387945,0.413825,0.450446,0.481697,0.452155,0.390631,0.339605,0.333501,0.394049,0.443122,0.448005,0.419928,0.425788,0.465827,0.499519,0.494392,0.453376,0.388678,0.336919,0.305425,0.283207,0.345708,0.42652,0.439704,0.415534,0.396246,0.393805,0.38526,0.364752,0.375738,0.41236,0.443122,0.481941,0.531746,0.559823,0.559091,0.541024,0.532967,0.544442,0.576181,0.597421,0.596201,0.588876,0.585702,0.583017,0.590341,0.595468,0.586923,0.571786,0.546883,0.506111,0.484138,0.507332,0.591806,0.661387,0.674571,0.650401,0.595712,0.517098,0.433845,0.345464,0.292241,0.253666,0.225345,0.217533,0.215335,0.232425,0.267094,0.316167,0.393072,0.516609,0.634043,0.691173,0.689708,0.646738,0.586923,0.520027,0.462654,0.411139,0.390143,0.390631,0.388678,0.370367,0.326177,0.287114,0.316411,0.401617,0.480232,0.53077,0.550546,0.56788,0.615732,0.654551,0.653574,0.614267,0.566171,0.529305,0.482429,0.40943,0.358404,0.354742,0.4065,0.485603,0.572519,0.643076,0.675059,0.679942,0.652354,0.574228,0.441901,0.33521,0.300298,0.351812,0.427497,0.456794,0.421149,0.355474,0.294926,0.287846,0.306401,0.359625,0.45655,0.504402,0.466072,0.413825,0.378668,0.348882,0.334722,0.364752,0.404303,0.43946,0.454353,0.440681,0.411383,0.416266,0.464607,0.521492,0.553475,0.578378,0.61622,0.65333,0.672374,0.624765,0.562997,0.511971,0.476326,0.464607,0.510262,0.543954,0.542977,0.531014,0.499031,0.437018,0.393805,0.379644,0.366461,0.394293,0.446784,0.498543,0.521248,0.514656,0.523445,0.56202,0.587411,0.562264,0.475105,0.371099,0.305913,0.285649,0.287358,0.318364,0.353765,0.395514,0.44654,0.509041,0.581308,0.626474,0.625742,0.591318,0.537362,0.477546,0.430915,0.383795,0.348394,0.319829,0.323003,0.354742,0.400641,0.470954,0.540536,0.588876,0.577157,0.543465,0.537118,0.576181,0.611093,0.638682,0.665293,0.639902,0.573495,0.505135,0.451423,0.421881,0.367681,0.361822,0.373053,0.37818,0.384771,0.393072,0.387945,0.41529,0.453376,0.468269,0.443366,0.392584,0.376226,0.401373,0.463386,0.523934,0.574472,0.578622,0.531258,0.467536,0.419684,0.394781,0.390875,0.383062,0.352789,0.310552,0.307622,0.358648,0.403571,0.415045,0.409918,0.42359,0.480476,0.556893,0.648936,0.718029,0.735607,0.714122,0.654307,0.629892,0.666758,0.684825,0.667002,0.61622,0.546883,0.491707,0.453132,0.442878,0.467536,0.460945,0.384039,0.270268,0.200687,0.15552,0.157717,0.206546,0.301274,0.403082,0.463386,0.489998,0.508797,0.491707,0.431403,0.363775,0.338872,0.358404,0.409918,0.467048,0.494148,0.505867,0.528328,0.55787,0.572274,0.578866,0.58912,0.594736,0.587167,0.568612,0.554208,0.535897,0.499519,0.493172,0.519295,0.565682,0.595468,0.603769,0.582284,0.537362,0.481941,0.449714,0.438239,0.432868,0.42945,0.409674,0.380133,0.372076,0.398199,0.434821,0.4607,0.481453,0.498054,0.505867,0.507088,0.488777,0.489021,0.495369,0.483406,0.440681,0.406989,0.427985,0.473884,0.498299,0.496101,0.486091,0.479011,0.431403,0.377935,0.376226,0.396246,0.423835,0.469734,0.521736,0.60206,0.671397,0.708507,0.681407,0.588388,0.467048,0.341802,0.240726,0.181399,0.142336,0.0927749,0.0822766,0.131838,0.224125,0.31104,0.383062,0.448005,0.505623,0.556161,0.59913,0.617929,0.607431,0.584237,0.56788,0.551278,0.542977,0.537606,0.525154,0.515145,0.522957,0.537606,0.553719,0.55787,0.544198,0.53785,0.545418,0.552987,0.548104,0.541756,0.541268,0.548836,0.546151,0.525643,0.499763,0.483894,0.488533,0.498543,0.515633,0.518318,0.511727,0.498787,0.47657,0.466804,0.475837,0.483406,0.4607,0.408453,0.335698,0.292729,0.324712,0.407965,0.484871,0.511971,0.477546,0.402106,0.337163,0.354742,0.423346,0.49366,0.508553,0.482185,0.465827,0.498543,0.575204,0.654551,0.708751,0.752453,0.757092,0.706554,0.590341,0.448249,0.314946,0.203372,0.131106,0.099855,0.120607,0.177493,0.259037,0.333745,0.391608,0.432868,0.447272,0.467048,0.505623,0.540047,0.556405,0.57203,0.599619,0.624277,0.651133,0.651621,0.610849,0.541756,0.452644,0.376715,0.322026,0.295903,0.308354,0.341558,0.381598,0.428473,0.488045,0.532967,0.549325,0.552743,0.548836,0.542,0.556161,0.572763,0.566903,0.557137,0.547616,0.54493,0.561288,0.581796,0.586191,0.567636,0.533944,0.473396,0.387457,0.31397,0.274907,0.283452,0.281498,0.270756,0.278569,0.320073,0.385992,0.448493,0.498787,0.524666,0.533211,0.532235,0.5149,0.497078,0.519295,0.554696,0.579843,0.577646,0.548592,0.503914,0.472908,0.466316,0.45362,0.441169,0.435554,0.430671,0.428229,0.433356,0.449714,0.475837,0.507332,0.530526,0.540047,0.546883,0.570565,0.59791,0.611582,0.602548,0.581796,0.557137,0.530526,0.506111,0.512947,0.518563,0.499275,0.470466,0.435065,0.395514,0.361578,0.318608,0.284428,0.275883,0.268803,0.275395,0.308354,0.353765,0.386236,0.410651,0.418219,0.405035,0.386969,0.398444,0.417731,0.424567,0.429694,0.463142,0.505623,0.542489,0.56495,0.569345,0.561776,0.559823,0.559335,0.547127,0.534676,0.531502,0.522225,0.509041,0.502937,0.509773,0.514656,0.515145,0.516121,0.514412,0.514168,0.509285,0.501717,0.499275,0.492683,0.473884,0.457038,0.442145,0.416022,0.394049,0.381109,0.386481,0.406989,0.425055,0.451423,0.463142,0.461189,0.461921,0.466072,0.474861,0.486336,0.493904,0.492439,0.4795,0.474128,0.486336,0.503914,0.519539,0.52369,0.518074,0.512947,0.506844,0.496101,0.48365,0.475349,0.471931,0.472419,0.473884,0.47364,0.472419,0.468025,0.460945,0.456062,0.45362,0.451179,0.448493,0.445319,0.443366,0.443366,0.44361,0.445808,0.448493,0.452888,0.458259,0.4607,0.465583,0.469001,0.465583,0.462898,0.467781,0.475349,0.481453,0.488289,0.49781,0.503914,0.508309,0.5066,0.500252,0.491707,0.488777,0.489021,0.49366,0.495857,0.494148,0.485115,0.476081,0.465339,0.457771,0.455329,0.457282,0.460212,0.460456,0.45655,0.453132,0.449226,0.44654,0.445563,0.448249,0.449226,0.44947,0.44947,0.451179,0.454597,0.457771,0.461921,0.47364,0.483894,0.489754,0.490486,0.488045,0.489998,0.490242,0.493172,0.494148,0.495857,0.498299,0.500984,0.504158,0.506111,0.505135,0.503426,0.499519,0.493904,0.487556,0.482429,0.47779,0.475105,0.472175,0.468757,0.46656,0.4607,0.455329,0.450935,0.444587,0.439948,0.436286,0.432624,0.425055,0.418952,0.421393,0.427741,0.4336,0.440681,0.443366,0.442634,0.445563,0.446296,0.452399,0.462898,0.473152,0.479744,0.485847,0.486824,0.4878,0.49073,0.494881,0.494636,0.498787,0.508797,0.518074,0.52369,0.520272,0.512703,0.505379,0.498543,0.495125,0.492195,0.48658,0.477546,0.46949,0.462654,0.458015,0.456062,0.453376,0.448981,0.444587,0.440436,0.437018,0.434577,0.432868,0.431647,0.432624,0.435798,0.441169,0.447272,0.448249,0.445808,0.444587,0.44654,0.449714,0.453132,0.458015,0.462898,0.468025,0.472419,0.474128,0.472175,0.47364,0.474617,0.477058,0.479988,0.481453,0.48365,0.485847,0.485603,0.48365,0.482429,0.479988,0.47657,0.471443,0.467048,0.465095,0.461677,0.458991,0.455085,0.450935,0.448737,0.446296,0.444343,0.444099,0.446296,0.451179,0.453376,0.45362,0.459236,0.464607,0.469001,0.471687,0.474128,0.476814,0.481697,0.485847,0.488777,0.489998,0.49073,0.492439,0.49366,0.495857,0.496834,0.497078,0.498787,0.502693,0.504158,0.504158,0.499519,0.493172,0.484871,0.477546,0.473396,0.468269,0.465339,0.459968,0.457282,0.45655,0.457282,0.457527,0.454108,0.45069,0.443366,0.438483,0.4336,0.427985,0.423102,0.42359,0.424811,0.42945,0.435309,0.441901,0.448981,0.449714,0.452644,0.457527,0.460945,0.466804,0.472175,0.47779,0.482673,0.486336,0.489021,0.490486,0.492439,0.494636,0.495857,0.495369,0.495857,0.494392,0.49073,0.486824,0.482673,0.478523,0.472175,0.465583,0.458747,0.452399,0.44654,0.441413,0.437507,0.435554,0.413336,0.39234,0.378668,0.376959,0.391608,0.411627,0.425055,0.440681,0.456794,0.469001,0.4795,0.487556,0.497566,0.503182,0.509773,0.513191,0.514656,0.517098,0.521248,0.525643,0.528573,0.529061,0.529305,0.528817,0.528328,0.526619,0.523201,0.519295,0.515145,0.51075,0.505623,0.498054,0.492439,0.488045,0.482429,0.475349,0.47071,0.466316,0.462165,0.458747,0.453376,0.451179,0.447761,0.444587,0.440925,0.437995,0.437263,0.439216,0.440925,0.445075,0.448737,0.452399,0.454108,0.455329,0.458747,0.463874,0.468757,0.474128,0.47779,0.481941,0.485603,0.489754,0.492195,0.494636,0.496834,0.498787,0.498299,0.496834,0.497566,0.494636,0.491707,0.489998,0.487312,0.484627,0.481697,0.477058,0.473152,0.46949,0.465095,0.460456,0.455329,0.45069,0.448493,0.446784,0.443854,0.441169,0.437263,0.436286,0.438483,0.440192,0.444099,0.447517,0.451423,0.457038,0.459968,0.46363,0.468757,0.474617,0.478767,0.483162,0.48658,0.49073,0.495369,0.498787,0.503426,0.5066,0.508064,0.509773,0.507576,0.504891,0.501228,0.497566,0.492195,0.48658,0.48365,0.481697,0.477058,0.473884,0.468757,0.463142,0.456794,0.451667,0.44654,0.441657,0.437995,0.435554,0.434333,0.432868,0.434577,0.437507,0.439948,0.44361,0.447761,0.451423,0.45655,0.459724,0.463386,0.467781,0.471443,0.476326,0.48072,0.485603,0.489754,0.495857,0.499031,0.501961,0.502937,0.50367,0.505135,0.504646,0.501717,0.498543,0.493172,0.488533,0.484871,0.481697,0.4795,0.475105,0.472663,0.46949,0.465339,0.462409,0.458015,0.453376,0.452155,0.448737,0.44654,0.445319,0.443854,0.444343,0.445319,0.445808,0.449226,0.452888,0.456062,0.458503,0.459724,0.462409,0.468757,0.471443,0.477058,
0.478279,0.484627,0.490242,0.495125,0.499275,0.504158,0.508553,0.511238,0.512215,0.511727,0.509041,0.505379,0.500252,0.494636,0.489509,0.485603,0.4795,0.474128,0.469001,0.462898,0.457771,0.452644,0.446784,0.441901,0.437995,0.4336,0.430671,0.427741,0.427008,0.42945,0.428717,0.43238,0.437018,0.443366,0.45069,0.461189,0.47071,0.477058,0.478767,0.4795,0.479744,0.48072,0.481453,0.48365,0.488045,0.492683,0.495369,0.497566,0.499763,0.500984,0.50074,0.499763,0.499275,0.498054,0.494636,0.490242,0.486091,0.480232,0.473884,0.468513,0.466072,0.464118,0.461921,0.456062,0.449226,0.443366,0.438483,0.433845,0.432624,0.435309,0.439704,0.442634,0.447517,0.45948,0.484138,0.505135,0.510262,0.496834,0.48072,0.460945,0.444587,0.434821,0.431891,0.435309,0.442634,0.452155,0.460212,0.462898,0.459968,0.458015,0.457038,0.461921,0.469001,0.475837,0.480476,0.481697,0.480476,0.480964,0.481453,0.483406,0.484871,0.483162,0.479011,0.478279,0.47779,0.47364,0.46949,0.4607,0.452399,0.44654,0.442878,0.440925,0.440192,0.442878,0.445563,0.448249,0.451911,0.454353,0.456794,0.461189,0.46656,0.472908,0.480964,0.492683,0.508064,0.521004,0.531258,0.542,0.559823,0.572763,0.574716,0.561044,0.535164,0.504646,0.47657,0.453132,0.434333,0.410163,0.391119,0.391852,0.40943,0.427008,0.435798,0.43946,0.443366,0.444587,0.446296,0.447028,0.448249,0.448493,0.447517,0.445808,0.451423,0.455329,0.465095,0.472663,0.47657,0.478279,0.475837,0.47364,0.471443,0.470954,0.470222,0.476326,0.484382,0.494148,0.500984,0.514168,0.54786,0.569345,0.570077,0.556893,0.536385,0.51368,0.499763,0.487556,0.475837,0.469978,0.467048,0.464118,0.455573,0.442145,0.430915,0.424079,0.420172,0.42359,0.43238,0.440681,0.445563,0.44654,0.443854,0.440925,0.440192,0.447028,0.454353,0.460456,0.465339,0.469978,0.475837,0.47779,0.478279,0.478523,0.48072,0.484382,0.488533,0.509041,0.543465,0.560311,0.55494,0.538827,0.520272,0.502693,0.494881,0.491951,0.49073,0.487312,0.486091,0.484871,0.474617,0.462409,0.456062,0.447761,0.440925,0.436774,0.436042,0.432868,0.426276,0.418708,0.413092,0.410163,0.410407,0.414313,0.419196,0.424811,0.431647,0.436286,0.440925,0.445319,0.44947,0.451423,0.457038,0.463874,0.470466,0.475837,0.478523,0.483406,0.487556,0.49073,0.495125,0.498543,0.502449,0.505867,0.50782,0.509285,0.508797,0.5066,0.503426,0.500008,0.496101,0.497566,0.498543,0.495125,0.489021,0.482185,0.474128,0.466804,0.457282,0.449958,0.441169,0.435309,0.430671,0.426032,0.421393,0.417243,0.416022,0.421637,0.44361,0.473396,0.495613,0.512215,0.51783,0.520516,0.518563,0.513924,0.500252,0.47779,0.451179,0.430426,0.418952,0.413336,0.398444,0.390143,0.397223,0.421637,0.448737,0.470222,0.485603,0.501717,0.515633,0.521248,0.522957,0.520027,0.5149,0.504402,0.489754,0.477302,0.465827,0.457038,0.451667,0.446296,0.442634,0.437507,0.432136,0.427741,0.427008,0.42652,0.427741,0.432624,0.437751,0.44361,0.451667,0.458747,0.463874,0.466804,0.469245,0.473396,0.475837,0.479255,0.481453,0.482429,0.488045,0.497322,0.506355,0.516121,0.525887,0.5337,0.540536,0.540291,0.533211,0.524422,0.517342,0.513924,0.512703,0.510994,0.505379,0.493904,0.477058,0.454597,0.428962,0.401862,0.380133,0.373053,0.381353,0.39649,0.414069,0.426276,0.434577,0.437263,0.43653,0.438239,0.443122,0.449714,0.45948,0.46949,0.475837,0.4795,0.480476,0.478523,0.47779,0.476326,0.477546,0.480232,0.482673,0.489754,0.500252,0.51075,0.516854,0.516365,0.514656,0.511971,0.506111,0.502449,0.498543,0.493416,0.485603,0.474128,0.465339,0.465095,0.471443,0.472908,0.474861,0.475349,0.474861,0.469245,0.461921,0.451179,0.440192,0.434333,0.432868,0.433356,0.442145,0.448005,0.448493,0.443854,0.438972,0.440681,0.448249,0.454597,0.466804,0.485603,0.505867,0.531502,0.551522,0.561044,0.571542,0.602548,0.614267,0.600351,0.570077,0.530037,0.488533,0.446296,0.416999,0.416266,0.423835,0.428962,0.427741,0.42237,0.417487,0.400397,0.376471,0.351324,0.33814,0.342046,0.347173,0.344976,0.362799,0.398199,0.433112,0.4607,0.484627,0.515633,0.54078,0.55201,0.55201,0.538094,0.511238,0.481697,0.458747,0.449226,0.451179,0.460456,0.473152,0.48365,0.491707,0.495857,0.495125,0.500008,0.509041,0.509773,0.502937,0.483406,0.454353,0.428229,0.410163,0.404791,0.400641,0.39942,0.396979,0.404303,0.427741,0.465339,0.50074,0.530526,0.552255,0.558602,0.54786,0.527108,0.508309,0.491218,0.478523,0.468513,0.469734,0.476814,0.485359,0.486336,0.481453,0.478523,0.470954,0.461189,0.454353,0.44947,0.44654,0.447272,0.455818,0.468513,0.482429,0.49366,0.500984,0.502937,0.499519,0.501961,0.51368,0.522225,0.528328,0.556161,0.589853,0.601328,0.617197,0.625986,0.606699,0.552743,0.470222,0.387213,0.324224,0.269535,0.234134,0.234379,0.259037,0.286625,0.302007,0.319585,0.348882,0.375494,0.398199,0.445808,0.504646,0.559335,0.585214,0.580331,0.554452,0.52076,0.490242,0.486336,0.524666,0.564706,0.603769,0.62208,0.614023,0.593515,0.576425,0.562509,0.535164,0.502693,0.494636,0.504402,0.511238,0.504891,0.493416,0.462898,0.41651,0.382574,0.366461,0.349859,0.322271,0.312261,0.33814,0.381842,0.418952,0.433356,0.420172,0.399908,0.398444,0.429694,0.458747,0.48072,0.530526,0.610361,0.695323,0.768322,0.783459,0.728771,0.630625,0.545663,0.46949,0.370123,0.283696,0.221439,0.21387,0.227543,0.266606,0.327398,0.37818,0.40528,0.416022,0.431891,0.471931,0.506111,0.518563,0.504402,0.470954,0.445808,0.440436,0.456306,0.481941,0.525399,0.571298,0.580575,0.569345,0.543221,0.514656,0.511971,0.538094,0.573251,0.618662,0.682139,0.722667,0.733654,0.747814,0.685801,0.56202,0.414801,0.293706,0.208499,0.164309,0.152102,0.159182,0.19263,0.264897,0.358892,0.437751,0.479988,0.499519,0.527596,0.588632,0.635019,0.646983,0.628428,0.585946,0.521736,0.502449,0.539803,0.596201,0.60914,0.563241,0.490486,0.425544,0.339117,0.258793,0.172366,0.0786145,0.0117189,0.000244144,0.000244144,0.0261234,0.0766613,0.162356,0.271489,0.383062,0.48365,0.570809,0.679454,0.792004,0.854994,0.859144,0.832532,0.776867,0.709728,0.676768,0.662852,0.646983,0.647227,0.682139,0.706554,0.701671,0.657237,0.590097,0.521981,0.457527,0.374029,0.285161,0.247318,0.263676,0.339849,0.405524,0.4607,0.492195,0.493172,0.454353,0.417975,0.404791,0.402594,0.383062,0.342535,0.31812,0.313481,0.342779,0.404547,0.445075,0.498299,0.56495,0.602548,0.633799,0.672129,0.697276,0.735851,0.730968,0.646494,0.552987,0.498054,0.454108,0.393805,0.340093,0.304936,0.289555,0.274174,0.246586,0.216068,0.213382,0.230716,0.297124,0.379156,0.430671,0.45069,0.44654,0.454841,0.503426,0.543465,0.547372,0.536141,0.548104,0.579355,0.573495,0.541268,0.499519,0.472175,0.469734,0.473152,0.453864,0.417243,0.390875,0.394781,0.415534,0.420905,0.416022,0.406256,0.430182,0.49659,0.567147,0.632334,0.679454,0.701183,0.691661,0.651865,0.609873,0.59205,0.582284,0.562753,0.556405,0.588632,0.618418,0.620371,0.598398,0.554696,0.496101,0.437018,0.41944,0.427497,0.438239,0.447028,0.437995,0.431891,0.425788,0.446296,0.479011,0.484627,0.47364,0.437507,0.412604,0.420661,0.426276,0.458259,0.501717,0.519539,0.501228,0.4607,0.391608,0.286137,0.214359,0.240482,0.336187,0.485359,0.663828,0.82594,0.941421,0.941421,0.86183,0.673594,0.43653,0.229984,0.0671397,0,0.000732433,0,0.000244144,0.0231937,0.108156,0.197757,0.296635,0.410651,0.537362,0.637949,0.657237,0.636484,0.622812,0.615244,0.635752,0.662852,0.679942,0.707042,0.722911,0.723156,0.697276,0.662608,0.628183,0.591562,0.55787,0.523445,0.511727,0.492195,0.436774,0.374029,0.303227,0.274418,0.306889,0.359136,0.399176,0.447517,0.454597,0.453132,0.511727,0.578622,0.654307,0.738781,0.785168,0.802014,0.767346,0.660655,0.528817,0.433845,0.37232,0.304448,0.208988,0.0883803,0.00463874,0,0,0,0.000732433,0.0715343,0.240238,0.421393,0.547616,0.610605,0.61207,0.586679,0.576669,0.575692,0.583993,0.59498,0.607431,0.615488,0.611826,0.592538,0.549813,0.516121,0.503914,0.5608,0.653819,0.74464,0.784436,0.784924,0.782971,0.760021,0.708507,0.655772,0.597177,0.523445,0.458503,0.399664,0.339605,0.310307,0.318608,0.354009,0.391852,0.423346,0.424811,0.412116,0.407721,0.432136,0.456306,0.44947,0.428229,0.423102,0.440436,0.501228,0.568124,0.623056,0.678965,0.738293,0.790295,0.828626,0.823987,0.756115,0.6421,0.521981,0.404059,0.346929,0.398444,0.481209,0.540291,0.592538,0.547127,0.422858,0.296391,0.16553,0.0117189,0.000976577,0.000244144,0,0.000244144,0,0.0634775,0.180423,0.281987,0.389654,0.526864,0.659434,0.757336,0.799084,0.772229,0.705577,0.643565,0.591562,0.57496,0.585702,0.563485,0.522957,0.529793,0.538094,0.52784,0.541024,0.559091,0.55494,0.55201,0.569833,0.637949,0.695811,0.701671,0.666026,0.58204,0.504891,0.434577,0.31812,0.183841,0.069337,0.00195315,0,0.0527352,0.190188,0.344732,0.465095,0.518074,0.523934,0.513191,0.507332,0.49659,0.468269,0.481209,0.558114,0.642832,0.6692,0.66334,0.635752,0.575448,0.519539,0.489265,0.48365,0.476081,0.462409,0.467048,0.482673,0.530282,0.561776,0.526864,0.437263,0.372076,0.387945,0.473152,0.591562,0.69044,0.748302,0.799817,0.842054,0.85304,0.791516,0.663584,0.481453,0.276616,0.0874037,0.000488289,0,0,0,0,0.100832,0.164553,0.227543,0.313725,0.415534,0.54493,0.651621,0.696788,0.658457,0.578378,0.500252,0.440681,0.444587,0.478767,0.499763,0.504158,0.529305,0.62623,0.745861,
0.0529793,0.049073,0.0864271,0.0324712,0.000732433,0.000244144,0.0668956,0.273442,0.488289,0.629648,0.68336,0.672862,0.605478,0.509529,0.432624,0.408453,0.434089,0.50367,0.562509,0.58912,0.611337,0.598154,0.57789,0.586191,0.62916,0.691173,0.732189,0.754894,0.786633,0.759045,0.662119,0.513436,0.391852,0.253666,0.0891127,0.000488289,0.000488289,0.0542,0.160403,0.2439,0.280034,0.282963,0.327398,0.394293,0.478523,0.568856,0.655039,0.686046,0.661387,0.620127,0.607431,0.632578,0.657237,0.645029,0.608652,0.561532,0.512215,0.469245,0.425788,0.391363,0.358892,0.340581,0.344976,0.369635,0.438483,0.55079,0.661143,0.718029,0.701427,0.654063,0.624033,0.591318,0.525399,0.496834,0.506111,0.482673,0.430915,0.381109,0.342535,0.320317,0.288823,0.258061,0.253666,0.294926,0.414313,0.553475,0.634043,0.647227,0.624277,0.612558,0.59913,0.609628,0.63209,0.611093,0.591073,0.551522,0.48072,0.403571,0.275151,0.164065,0.116213,0.0888685,0.0361334,0.0354009,0.135012,0.260502,0.359136,0.418952,0.457038,0.496345,0.561288,0.614023,0.647471,0.698985,0.780041,0.862806,0.941176,0.940688,0.941909,0.86183,0.744884,0.612802,0.464607,0.333745,0.271,0.207034,0.116213,0.0295415,0.042237,0.109133,0.183841,0.255131,0.33106,0.401373,0.448493,0.463142,0.454108,0.484871,0.59791,0.739513,0.865736,0.911635,0.904067,0.859876,0.780529,0.676036,0.593271,0.545418,0.469001,0.320562,0.207767,0.140627,0.10547,0.0883803,0.0820325,0.143069,0.234379,0.292241,0.324468,0.397223,0.500984,0.552743,0.54786,0.53492,0.502205,0.452399,0.420661,0.390631,0.381353,0.39234,0.367926,0.35523,0.391363,0.461921,0.540047,0.587655,0.605966,0.614511,0.624033,0.63624,0.642344,0.645762,0.662119,0.68922,0.735607,0.776867,0.777356,0.759777,0.722911,0.633066,0.50074,0.391119,0.29688,0.249516,0.260502,0.276371,0.254398,0.233646,0.287114,0.404791,0.516854,0.552987,0.5149,0.428717,0.371099,0.34815,0.346685,0.353033,0.385748,0.443854,0.4878,0.515389,0.512459,0.503182,0.529793,0.55787,0.569345,0.579843,0.62208,0.666026,0.694591,0.680919,0.618662,0.561776,0.505867,0.440681,0.395026,0.390631,0.444587,0.513924,0.539559,0.525887,0.446052,0.361334,0.338628,0.344244,0.284916,0.202152,0.168215,0.180179,0.206302,0.195071,0.186282,0.258793,0.358648,0.411383,0.40943,0.416266,0.439948,0.472908,0.516854,0.576425,0.641123,0.686778,0.727306,0.739269,0.742199,0.739025,0.707774,0.669688,0.637217,0.572763,0.476814,0.380133,0.316655,0.287114,0.352544,0.476081,0.568612,0.627451,0.632578,0.591073,0.527352,0.472175,0.476814,0.482918,0.454353,0.391363,0.278569,0.149416,0.0773938,0.093019,0.194583,0.33228,0.43653,0.501228,0.55079,0.58497,0.611826,0.663096,0.703136,0.723644,0.713146,0.695811,0.679698,0.651133,0.616464,0.556405,0.462898,0.351568,0.244388,0.191653,0.220218,0.311284,0.399664,0.447517,0.433356,0.404303,0.407721,0.451423,0.50074,0.480476,0.441169,0.423102,0.452888,0.516609,0.594003,0.666758,0.709483,0.729747,0.668956,0.551522,0.439948,0.371099,0.297124,0.257816,0.297612,0.3523,0.388678,0.390875,0.38233,0.357427,0.335943,0.340337,0.38526,0.459968,0.518074,0.53785,0.56495,0.609873,0.647715,0.661631,0.621836,0.529305,0.431159,0.379156,0.35523,0.339117,0.31397,0.290776,0.291997,0.31812,0.359625,0.413825,0.484138,0.604746,0.71046,0.7505,0.743175,0.727794,0.698985,0.645762,0.585214,0.531991,0.459968,0.358648,0.284916,0.288823,0.342535,0.400153,0.433112,0.449714,0.471199,0.489265,0.515633,0.517342,0.491463,0.484871,0.505135,0.491463,0.47779,0.483406,0.470954,0.445563,0.380133,0.30103,0.25098,0.249271,0.265141,0.294926,0.352789,0.471931,0.605722,0.691661,0.731456,0.732677,0.715831,0.684092,0.615976,0.534188,0.495613,0.518807,0.540536,0.542,0.521248,0.474861,0.411139,0.352544,0.305913,0.3252,0.388922,0.435554,0.457038,0.505135,0.560555,0.559335,0.513924,0.458259,0.409186,0.384039,0.403571,0.453132,0.470466,0.471931,0.496101,0.553231,0.600595,0.623301,0.607431,0.538338,0.427985,0.361089,0.344488,0.328618,0.316167,0.307622,0.276371,0.270024,0.290043,0.299077,0.311284,0.324468,0.33521,0.387701,0.452644,0.468025,0.443122,0.391852,0.374273,0.44947,0.563241,0.660899,0.722911,0.709239,0.640391,0.56788,0.51783,0.522225,0.544442,0.548592,0.584726,0.620859,0.62623,0.579843,0.525643,0.49366,0.511971,0.558846,0.590585,0.59913,0.602548,0.579843,0.526619,0.463142,0.427741,0.360357,0.288823,0.248295,0.25098,0.283207,0.327398,0.36939,0.43238,0.482918,0.484138,0.435309,0.378424,0.359869,0.36939,0.364752,0.349859,0.361578,0.402838,0.441657,0.462165,0.47364,0.501717,0.534432,0.555673,0.607675,0.695079,0.790295,0.833509,0.801038,0.717784,0.622324,0.552987,0.519295,0.517098,0.498543,0.461189,0.498787,0.619638,0.754406,0.820569,0.804456,0.771008,0.69044,0.583261,0.447517,0.261234,0.0571298,0.000488289,0.000732433,0.000732433,0.000244144,0.000488289,0,0.0314946,0.188235,0.314458,0.427741,0.534432,0.595468,0.623301,0.663096,0.703624,0.709483,0.666514,0.624521,0.609873,0.601816,0.578622,0.567391,0.610849,0.661143,0.733165,0.807385,0.834485,0.821302,0.763195,0.673838,0.619638,0.559579,0.473884,0.368902,0.307622,0.301274,0.296635,0.314702,0.343999,0.328618,0.28101,0.274662,0.301274,0.33106,0.368414,0.388434,0.34815,0.324224,0.358648,0.395758,0.395758,0.386481,0.381842,0.430426,0.546151,0.655772,0.742931,0.794202,0.7776,0.685069,0.536873,0.385016,0.238529,0.123293,0.0734874,0.140627,0.306401,0.457771,0.564462,0.695567,0.804211,0.84181,0.816907,0.707042,0.561776,0.433112,0.335698,0.281254,0.231937,0.184329,0.177493,0.216068,0.331304,0.456306,0.501961,0.49781,0.474617,0.442634,0.452399,0.478035,0.473396,0.458991,0.448249,0.423835,0.382818,0.396002,0.451667,0.503426,0.542733,0.577401,0.635019,0.691173,0.706798,0.680919,0.656748,0.644297,0.63331,0.618906,0.636484,0.649912,0.607675,0.502937,0.402594,0.377935,0.415778,0.470466,0.495857,0.457038,0.377691,0.286625,0.228519,0.210697,0.218997,0.27686,0.349859,0.394293,0.414313,0.427497,0.430915,0.424811,0.437751,0.454841,0.47779,0.508309,0.523934,0.533211,0.530037,0.548836,0.581552,0.614023,0.632822,0.594491,0.468757,0.348638,0.333745,0.405035,0.500008,0.581308,0.647715,0.698253,0.735607,0.755138,0.776867,0.749523,0.636484,0.48658,0.332525,0.217288,0.139651,0.123537,0.101808,0.0493172,0.0444343,0.119387,0.221195,0.292973,0.315679,0.309819,0.324712,0.379644,0.496345,0.630625,0.709728,0.724132,0.711437,0.727062,0.725353,0.699229,0.660899,0.61915,0.539315,0.452888,0.430182,0.44947,0.461677,0.435309,0.394049,0.378668,0.367926,0.361334,0.369146,0.390875,0.433112,0.506111,0.59498,0.654795,0.663828,0.643809,0.615488,0.573739,0.526131,0.479744,0.41236,0.330816,0.275883,0.253666,0.25391,0.257328,0.29102,0.326909,0.364508,0.404791,0.455085,0.540291,0.67042,0.780774,0.808362,0.7776,0.720958,0.666026,0.615488,0.544686,0.4607,0.399664,0.34107,0.275151,0.271733,0.358892,0.529305,0.704845,0.838392,0.870619,0.792981,0.665049,0.557626,0.453376,0.312993,0.115969,0.000732433,0,0.000244144,0,0.0415045,0.127443,0.17969,0.220706,0.293462,0.394781,0.480476,0.531746,0.583017,0.640879,0.675792,0.677989,0.655528,0.623301,0.626963,0.666026,0.685557,0.667491,0.624765,0.597421,0.605234,0.62623,0.613779,0.554208,0.499275,0.470222,0.452888,0.438972,0.431891,0.458259,0.506355,0.533944,0.545907,0.550057,0.550546,0.563973,0.60499,0.659434,0.695323,0.698497,0.67921,0.62623,0.534188,0.437018,0.346929,0.274418,0.193606,0.14844,0.15552,0.215091,0.27808,0.319585,0.34522,0.377447,0.381109,0.360601,0.353033,0.37232,0.384771,0.357916,0.329595,0.340337,0.376715,0.437751,0.505623,0.583017,0.673594,0.731945,0.742931,0.712413,0.668223,0.648447,0.648692,0.644297,0.615244,0.549325,0.48072,0.44239,0.427253,0.481697,0.557626,0.604013,0.575448,0.504646,0.418708,0.30811,0.17969,0.104494,0.156252,0.259525,0.316411,0.324468,0.337896,0.384771,0.448981,0.506844,0.563485,0.59498,0.581796,0.58204,0.591318,0.595956,0.615976,0.619883,0.555917,0.453864,0.369879,0.318364,0.280034,0.320073,0.39942,0.449958,0.462898,0.451423,0.448981,0.458991,0.44239,0.404303,0.392096,0.400885,0.418952,0.438483,0.466072,0.510506,0.563485,0.635752,0.712657,0.76759,0.820813,0.864759,0.881849,0.877943,0.819104,0.690684,0.515633,0.296635,0.139651,0.0705577,0.0366217,0.0268559,0.0126955,0.0793469,0.271244,0.468757,0.554452,0.490242,0.340581,0.227543,0.193118,0.2168,0.273442,0.366949,0.475349,0.5691,0.645762,0.669932,0.636728,0.583017,0.561044,0.574472,0.574228,0.568612,0.568856,0.559823,0.556649,0.563485,0.570077,0.601572,0.651621,0.658457,0.607431,0.534188,0.483406,0.450202,0.407477,0.353521,0.280522,0.210452,0.206546,0.273442,0.353521,0.429694,0.491707,0.504891,0.509041,0.512459,0.537118,0.585946,0.637217,0.684092,0.698009,0.656992,0.586923,0.542977,0.542245,0.575692,0.608408,0.59791,0.541512,0.441657,0.401862,0.403815,0.36231,0.254398,0.159426,0.15259,0.192142,0.233646,0.261723,0.25098,0.270512,0.345464,0.419684,0.443122,0.443122,0.425055,0.397711,0.398932,0.453376,0.499519,0.515145,0.511238,0.531746,0.620371,0.71754,0.795178,0.831556,0.822034,0.773205,0.677989,0.555673,0.465583,0.394781,0.316899,0.260014,0.284184,0.375738,0.499275,0.596933,0.634531,0.633555,0.618906,0.596689,0.578378,0.569345,0.552255,0.534432,0.495125,0.434333,0.348882,0.243656,0.15845,0.0979019,0.0886244,0.148196,0.243412,0.357916,0.428473,0.428229,0.455085,
0.417975,0.430426,0.450446,0.505379,0.588388,0.650645,0.695079,0.709728,0.686778,0.649668,0.619883,0.597177,0.574472,0.580087,0.615732,0.637461,0.632822,0.598886,0.554452,0.512703,0.481941,0.446296,0.405035,0.357427,0.343999,0.374273,0.406256,0.396735,0.390387,0.409674,0.431647,0.398444,0.333257,0.345708,0.449958,0.549081,0.588144,0.607919,0.595956,0.535897,0.474861,0.451179,0.438727,0.386725,0.287114,0.300542,0.418952,0.462165,0.413581,0.349615,0.260746,0.185306,0.178225,0.237552,0.312749,0.36939,0.349126,0.308354,0.304936,0.354986,0.45362,0.52784,0.548592,0.538582,0.531991,0.555428,0.596933,0.666514,0.790051,0.90724,0.941665,0.941665,0.941421,0.942153,0.797131,0.626474,0.466316,0.326421,0.148684,0.000244144,0,0.000732433,0.000488289,0.0517586,0.283207,0.499031,0.65919,0.763928,0.830579,0.864515,0.850111,0.783948,0.705089,0.62208,0.545663,0.481941,0.417975,0.372076,0.338628,0.309819,0.308354,0.369146,0.461189,0.51368,0.502693,0.482918,0.473884,0.463142,0.423346,0.363775,0.317876,0.30396,0.329839,0.429206,0.55787,0.660899,0.697276,0.704112,0.695079,0.647227,0.543221,0.366461,0.198245,0.104738,0.0925307,0.181399,0.322759,0.419684,0.450446,0.475837,0.500252,0.533455,0.552743,0.577401,0.608652,0.651621,0.689464,0.699962,0.694835,0.680919,0.638682,0.531258,0.417975,0.321538,0.263432,0.250004,0.232914,0.22681,0.25098,0.300053,0.34815,0.385748,0.419928,0.453132,0.492439,0.521736,0.542,0.556405,0.562753,0.567636,0.570565,0.55787,0.523934,0.507088,0.525643,0.543954,0.531258,0.51368,0.51368,0.528573,0.558602,0.582528,0.566415,0.537118,0.550546,0.582284,0.578622,0.572763,0.561776,0.521248,0.484871,0.489509,0.477546,0.399908,0.289067,0.19263,0.160891,0.220462,0.323247,0.407721,0.45362,0.467292,0.439704,0.406012,0.413092,0.452399,0.487312,0.484138,0.460456,0.449958,0.445563,0.438727,0.430182,0.428473,0.400641,0.3794,0.372076,0.33521,0.312261,0.315435,0.346929,0.390387,0.486091,0.600351,0.703624,0.758801,0.748058,0.74049,0.723156,0.689952,0.669688,0.678477,0.715831,0.734142,0.741222,0.713634,0.623789,0.501228,0.364508,0.236088,0.18677,0.172122,0.14136,0.093019,0.000488289,0,0.000244144,0,0.130861,0.274662,0.396735,0.502449,0.597665,0.656992,0.691905,0.718761,0.743175,0.786389,0.82179,0.795422,0.689464,0.543709,0.41236,0.347906,0.335698,0.316899,0.288823,0.28687,0.333257,0.416999,0.494148,0.545174,0.565927,0.577401,0.585946,0.594491,0.610849,0.628183,0.640635,0.655772,0.681651,0.70753,0.696544,0.651865,0.583261,0.5337,0.487556,0.435309,0.427253,0.427985,0.376959,0.333501,0.342535,0.357427,0.347906,0.317632,0.26392,0.218753,0.234867,0.307134,0.364752,0.354498,0.330571,0.353521,0.39527,0.452399,0.510994,0.586191,0.655528,0.685557,0.699474,0.704112,0.688243,0.654795,0.632334,0.603769,0.531991,0.455329,0.412848,0.357427,0.257572,0.149172,0.0986343,0.119387,0.177493,0.238041,0.343999,0.445808,0.511238,0.538338,0.568124,0.610849,0.674815,0.744396,0.772473,0.736339,0.640391,0.531258,0.458503,0.4336,0.41651,0.38526,0.356207,0.320562,0.306157,0.352544,0.464118,0.588876,0.630137,0.610361,0.596201,0.563973,0.506844,0.449958,0.425544,0.420172,0.400885,0.390631,0.418952,0.47657,0.512703,0.524666,0.537362,0.501961,0.429938,0.371099,0.339605,0.345953,0.363775,0.389899,0.432624,0.461921,0.455818,0.420172,0.425299,0.465339,0.525887,0.561532,0.576425,0.586435,0.589853,0.600839,0.602548,0.576913,0.516854,0.464851,0.474617,0.532479,0.57496,0.592782,0.585702,0.554452,0.500252,0.432624,0.361822,0.302251,0.25391,0.243656,0.276127,0.310552,0.35816,0.401373,0.4336,0.461189,0.490486,0.527108,0.536141,0.528328,0.526131,0.51783,0.519539,0.55494,0.618418,0.679454,0.722179,0.743908,0.746838,0.706798,0.622812,0.521248,0.407477,0.317144,0.227787,0.127932,0.0441901,0.0263676,0.0932631,0.214115,0.332525,0.439216,0.51075,0.552499,0.593759,0.645762,0.685313,0.701183,0.68629,0.646494,0.561288,0.464118,0.396246,0.376226,0.376959,0.374762,0.36817,0.364019,0.360845,0.357427,0.416266,0.519783,0.591073,0.586435,0.543954,0.525399,0.522225,0.516854,0.496834,0.454353,0.408698,0.403082,0.432136,0.470954,0.474372,0.437751,0.381109,0.312261,0.252445,0.198489,0.205081,0.290776,0.41529,0.51368,0.558602,0.561044,0.553964,0.553964,0.551522,0.539071,0.531014,0.546639,0.548104,0.522957,0.5149,0.528817,0.557137,0.576669,0.572519,0.543954,0.534432,0.55201,0.556405,0.534432,0.502205,0.463874,0.427253,0.409186,0.400397,0.39234,0.393317,0.398444,0.40943,0.442145,0.500984,0.558846,0.599374,0.630625,0.671397,0.705821,0.696544,0.646738,0.574716,0.501961,0.454108,0.440436,0.42359,0.404547,0.403326,0.401617,0.386969,0.376226,0.371344,0.362066,0.350103,0.347662,0.369146,0.412116,0.444343,0.451423,0.478523,0.551278,0.639658,0.67628,0.657969,0.607675,0.550057,0.469978,0.417487,0.401373,0.385748,0.363531,0.328374,0.31104,0.347906,0.447761,0.557626,0.607675,0.581308,0.502205,0.437995,0.40235,0.363287,0.309575,0.279057,0.253666,0.200443,0.152834,0.156008,0.20679,0.271977,0.333989,0.393561,0.464118,0.543954,0.624033,0.676524,0.698253,0.69752,0.656504,0.599619,0.568368,0.576913,0.578866,0.56495,0.546883,0.556649,0.578866,0.597665,0.595224,0.55079,0.474128,0.407965,0.377447,0.371832,0.378912,0.386969,0.380865,0.373297,0.411872,0.460945,0.467536,0.441413,0.438483,0.474372,0.507088,0.515633,0.504158,0.488045,0.487312,0.502693,0.515633,0.52491,0.534188,0.527352,0.512215,0.509041,0.511971,0.505379,0.490242,0.476814,0.469245,0.459236,0.444587,0.440436,0.447517,0.45362,0.461921,0.465339,0.458503,0.453864,0.463874,0.501717,0.581308,0.647959,0.689708,0.70631,0.663584,0.569589,0.469001,0.384771,0.312749,0.245853,0.207523,0.260014,0.38819,0.508797,0.570565,0.598154,0.591073,0.559823,0.529793,0.509529,0.480476,0.476814,0.489754,0.489754,0.484627,0.451179,0.405768,0.393561,0.403082,0.391119,0.340337,0.291752,0.261723,0.25391,0.289067,0.365728,0.459236,0.55201,0.613291,0.626963,0.642344,0.674815,0.666026,0.63624,0.615244,0.614023,0.611582,0.575204,0.511971,0.445563,0.378912,0.329351,0.267094,0.176028,0.106935,0.116457,0.193606,0.262943,0.338872,0.420661,0.499275,0.562753,0.586191,0.563729,0.512703,0.466316,0.436286,0.416999,0.395514,0.387457,0.408209,0.459724,0.531502,0.59498,0.644785,0.688243,0.711437,0.693126,0.677989,0.674327,0.645518,0.57496,0.485359,0.402106,0.333257,0.289311,0.256596,0.236576,0.234134,0.28809,0.378668,0.450935,0.538094,0.608164,0.631113,0.600839,0.5608,0.529793,0.498543,0.438483,0.373541,0.324468,0.307378,0.327642,0.373541,0.420417,0.471687,0.513924,0.538338,0.552987,0.551278,0.533455,0.484871,0.430671,0.417975,0.467292,0.550546,0.627695,0.705089,0.767346,0.792004,0.775891,0.69752,0.589609,0.489021,0.427741,0.377447,0.333501,0.319829,0.324468,0.321782,0.314214,0.327398,0.351324,0.373785,0.384283,0.396002,0.400397,0.393805,0.418219,0.490486,0.571298,0.615976,0.605722,0.571298,0.536629,0.487556,0.408942,0.337163,0.275151,0.228031,0.228763,0.307622,0.416022,0.503182,0.551766,0.559335,0.534676,0.496101,0.469001,0.450202,0.428229,0.413336,0.39649,0.39942,0.431891,0.488533,0.548836,0.601572,0.635996,0.662608,0.672374,0.665049,0.634043,0.602792,0.554208,0.499275,0.469734,0.469001,0.476814,0.47071,0.462409,0.428962,0.388678,0.349859,0.348394,0.374762,0.433356,0.521981,0.600107,0.657481,0.702403,0.696788,0.644541,0.573983,0.484138,0.366949,0.256352,0.200687,0.195315,0.235599,0.257328,0.251225,0.253666,0.284428,0.323247,0.381353,0.454841,0.492927,0.487068,0.457527,0.466316,0.506844,0.521492,0.503914,0.481941,0.448737,0.457527,0.532479,0.606699,0.660166,0.700206,0.737072,0.786389,0.823255,0.822278,0.780285,0.705577,0.628916,0.539559,0.400153,0.218021,0.103517,0.105715,0.153079,0.169192,0.17554,0.17969,0.173098,0.157229,0.165286,0.232425,0.31812,0.398199,0.48658,0.568124,0.627939,0.654063,0.667491,0.674327,0.6692,0.658213,0.664317,0.667247,0.644541,0.603769,0.568612,0.549813,0.530282,0.495125,0.451667,0.441901,0.463386,0.486824,0.502937,0.505379,0.502693,0.505623,0.515877,0.51783,0.505135,0.447517,0.362799,0.315679,0.320073,0.358892,0.387701,0.384771,0.372076,0.370367,0.381353,0.404547,0.428717,0.449714,0.462409,0.485359,0.507088,0.516121,0.539803,0.561044,0.570565,0.582284,0.59913,0.606455,0.599619,0.600107,0.594247,0.582528,0.609384,0.636728,0.622568,0.55494,0.458503,0.358404,0.308843,0.304936,0.317144,0.334234,0.333013,0.339361,0.371832,0.403082,0.411139,0.400641,0.377203,0.344976,0.322271,0.324468,0.349615,0.386969,0.432868,0.483162,0.523934,0.557137,0.597177,0.642344,0.673106,0.682872,0.665293,0.615,0.53077,0.455818,0.408209,0.374029,0.36817,0.401129,0.44947,0.473152,0.468757,0.479744,0.515877,0.57911,0.624521,0.618906,0.589609,0.559579,0.515389,0.470954,0.426276,0.376471,0.320562,0.25977,0.218997,0.217044,0.255619,0.337163,0.426764,0.484627,0.501228,0.485847,0.460945,0.448249,0.444831,0.436286,0.422614,0.40943,0.433845,0.474372,0.492927,0.497078,0.497078,0.497322,0.492439,0.505135,0.534188,0.563241,0.582284,0.590829,0.58497,0.573983,0.561288,0.548104,0.538338,0.535164,0.531014,0.522713,0.508064,0.499275,0.489509,0.476814,0.474617,0.480964,0.488045,0.488045,0.48365,0.47071,0.453376,0.437018,0.421637,0.413092,0.410651,0.40235,0.380133,0.358648,0.362554,0.384527,0.405768,0.41651,0.421881,0.428962,0.445075,0.465339,0.483894,
0.44361,0.438483,0.432868,0.427741,0.424323,0.422614,0.417487,0.415045,0.414069,0.415045,0.416266,0.420905,0.427253,0.4336,0.441413,0.447517,0.453864,0.462409,0.469001,0.477546,0.48365,0.49073,0.498054,0.505867,0.511482,0.5149,0.518318,0.521736,0.524178,0.523445,0.515389,0.517342,0.510994,0.505867,0.494392,0.488045,0.481697,0.474617,0.467536,0.461433,0.455573,0.448737,0.442634,0.435065,0.428717,0.423102,0.419196,0.416999,0.416022,0.419196,0.420661,0.424323,0.42945,0.434333,0.439948,0.446052,0.450202,0.457527,0.465827,0.473884,0.481697,0.491218,0.494881,0.502205,0.507088,0.512703,0.517586,0.521248,0.522957,0.523934,0.52369,0.521981,0.51783,0.512459,0.506355,0.499763,0.49366,0.488533,0.480964,0.472908,0.466804,0.458259,0.449958,0.44361,0.436774,0.431159,0.424811,0.421393,0.417243,0.41529,0.415534,0.41651,0.418952,0.423102,0.42945,0.437995,0.445319,0.452155,0.460456,0.469245,0.477546,0.484627,0.491463,0.497322,0.50367,0.509773,0.513191,0.516854,0.519783,0.521492,0.522469,0.520272,0.514656,0.510018,0.502937,0.496101,0.489265,0.484138,0.477058,0.46949,0.46363,0.454597,0.449714,0.440436,0.434089,0.428962,0.425055,0.421881,0.419196,0.417243,0.41651,0.416999,0.420417,0.424323,0.429694,0.437507,0.441901,0.449226,0.454841,0.462409,0.47071,0.478035,0.485115,0.491463,0.49781,0.504646,0.51075,0.516365,0.522469,0.527596,0.529061,0.53077,0.527108,0.524422,0.519051,0.51075,0.50367,0.495857,0.489754,0.48365,0.475837,0.467536,0.459968,0.452644,0.445563,0.440192,0.434089,0.427985,0.424323,0.421637,0.419196,0.416999,0.418463,0.42237,0.427008,0.433112,0.441657,0.449226,0.456794,0.460456,0.466072,0.471931,0.478035,0.48365,0.490242,0.49659,0.503426,0.509285,0.513924,0.51783,0.521736,0.524422,0.525643,0.523445,0.521004,0.515633,0.509041,0.500984,0.494148,0.487068,0.482429,0.475349,0.468513,0.4607,0.453132,0.446052,0.440436,0.432624,0.426764,0.421637,0.416999,0.414313,0.411872,0.411627,0.414801,0.417243,0.422614,0.430915,0.439216,0.44654,0.452399,0.458259,0.464851,0.470222,0.476814,0.484871,0.491951,0.499763,0.506844,0.51075,0.515389,0.519539,0.522713,0.526619,0.52491,0.522225,0.517586,0.511727,0.504891,0.497322,0.489998,0.48365,0.47657,0.47071,0.461921,0.452888,0.445808,0.437018,0.429694,0.423835,0.418952,0.416022,0.413336,0.412848,0.413825,0.418463,0.421881,0.426276,0.431647,0.439216,0.446296,0.452399,0.460456,0.469245,0.478767,0.486824,0.496101,0.505135,0.512703,0.518807,0.522957,0.525399,0.527352,0.530282,0.531014,0.528328,0.525399,0.520516,0.513924,0.5066,0.499275,0.491463,0.484871,0.475837,0.469245,0.461677,0.454841,0.448249,0.441169,0.43238,0.425055,0.419928,0.414069,0.410651,0.406744,0.406744,0.408942,0.409186,0.420905,0.427008,0.436286,0.443854,0.450935,0.457038,0.464851,0.472419,0.479988,0.486824,0.492683,0.500252,0.507576,0.514656,0.521004,0.526864,0.529549,0.532235,0.531991,0.529549,0.526375,0.520516,0.5149,0.508553,0.501472,0.493416,0.486824,0.480232,0.475593,0.470222,0.461189,0.44947,0.43946,0.428229,0.420172,0.413581,0.408942,0.406012,0.408453,0.409186,0.412848,0.417243,0.424811,0.430915,0.436286,0.44239,0.450446,0.460212,0.469978,0.479988,0.490242,0.496345,0.506111,0.510994,0.516609,0.521492,0.526131,0.529305,0.53077,0.528573,0.525399,0.522469,0.515145,0.508797,0.50074,0.49366,0.486824,0.478523,0.471687,0.463142,0.455573,0.448005,0.441169,0.4336,0.427741,0.42237,0.417975,0.415045,0.413092,0.416266,0.420172,0.423835,0.42945,0.435309,0.441657,0.447517,0.451179,0.45655,0.464363,0.473884,0.479988,0.48658,0.493416,0.499519,0.505135,0.511727,0.518074,0.522713,0.526375,0.527352,0.525643,0.521492,0.515633,0.506355,0.498054,0.492683,0.490242,0.489265,0.485603,0.479744,0.470222,0.455085,0.443122,0.433356,0.425055,0.418952,0.414313,0.411872,0.409186,0.407965,0.409186,0.412604,0.418708,0.427008,0.434089,0.441657,0.449714,0.457282,0.464363,0.471443,0.479255,0.486336,0.494148,0.500252,0.506355,0.51368,0.51783,0.522957,0.526375,0.528573,0.530282,0.527352,0.524666,0.518807,0.510262,0.503426,0.495857,0.490486,0.484138,0.475837,0.467781,0.459968,0.452888,0.445808,0.439704,0.432868,0.427253,0.42237,0.418219,0.416266,0.415045,0.416022,0.418219,0.422858,0.428962,0.435798,0.442145,0.44947,0.455573,0.461677,0.468757,0.475349,0.48365,0.491463,0.499519,0.505867,0.512459,0.518074,0.523201,0.527352,0.527352,0.526131,0.522469,0.519783,0.515145,0.508797,0.499763,0.491463,0.48365,0.477546,0.469245,0.461921,0.456794,0.44947,0.444831,0.439704,0.434821,0.429206,0.424323,0.420417,0.416266,0.415534,0.417731,0.420172,0.424079,0.430426,0.438239,0.448249,0.457282,0.466072,0.472663,0.478767,0.482918,0.489265,0.493904,0.499763,0.508797,0.521248,0.531991,0.531991,0.526375,0.515877,0.506844,0.500984,0.499275,0.493904,0.490974,0.488289,0.486091,0.482673,0.47779,0.469001,0.462898,0.45655,0.451423,0.447517,0.445319,0.442634,0.436774,0.432868,0.428473,0.425544,0.425055,0.425544,0.429206,0.434333,0.43946,0.44654,0.453864,0.462409,0.473396,0.48365,0.491707,0.495125,0.495857,0.49659,0.498543,0.501472,0.504891,0.508064,0.510994,0.512947,0.518563,0.523445,0.522225,0.517586,0.510994,0.501717,0.491218,0.481941,0.473884,0.467048,0.462654,0.453376,0.447517,0.441413,0.436042,0.431403,0.427008,0.424079,0.421149,0.418708,0.417243,0.416999,0.418219,0.421637,0.425544,0.432136,0.438483,0.445808,0.451911,0.458259,0.465095,0.472419,0.479011,0.48658,0.492927,0.500496,0.506111,0.512947,0.518318,0.523934,0.527108,0.531258,0.529793,0.527108,0.52491,0.519295,0.51368,0.507332,0.500252,0.493904,0.485359,0.47657,0.468757,0.461921,0.454597,0.447517,0.441901,0.436286,0.429938,0.425544,0.42359,0.420905,0.420172,0.420661,0.422858,0.426032,0.429938,0.435309,0.442634,0.448981,0.454597,0.461433,0.468269,0.474617,0.480476,0.485847,0.492439,0.498787,0.504646,0.509041,0.512459,0.514656,0.515877,0.517342,0.517098,0.51368,0.510018,0.503914,0.497322,0.491463,0.487312,0.481209,0.474861,0.466316,0.459724,0.452644,0.448493,0.440925,0.434577,0.430426,0.425788,0.422858,0.421881,0.421637,0.42359,0.425788,0.429206,0.434333,0.43946,0.445075,0.448493,0.453376,0.459724,0.466316,0.472663,0.479011,0.483894,0.49073,0.498299,0.505867,0.510262,0.514168,0.517586,0.52076,0.523934,0.521004,0.519295,0.514412,0.508797,0.502937,0.495857,0.490486,0.484138,0.47779,0.471931,0.465095,0.458991,0.453376,0.445808,0.439216,0.435309,0.430182,0.426276,0.423346,0.421149,0.420417,0.422614,0.426764,0.432136,0.438972,0.445563,0.451423,0.456794,0.463874,0.469734,0.476081,0.482673,0.489998,0.495613,0.504158,0.510506,0.515877,0.520027,0.522957,0.524666,0.523201,0.520516,0.515633,0.510994,0.505623,0.499763,0.49366,0.488045,0.481453,0.473396,0.465583,0.457282,0.44947,0.44361,0.436774,0.431159,0.427253,0.422858,0.420417,0.41651,0.414557,0.417243,0.419928,0.424811,0.431403,0.437995,0.444099,0.449714,0.456062,0.462898,0.47071,0.478035,0.484627,0.49073,0.496101,0.502693,0.508064,0.512947,0.516609,0.521492,0.524178,0.524422,0.522225,0.517586,0.513191,0.5066,0.499763,0.492683,0.48658,0.48072,0.474617,0.466804,0.459724,0.453132,0.44654,0.440681,0.433845,0.428717,0.424323,0.420661,0.418463,0.417243,0.41944,0.422126,0.428229,0.434089,0.440436,0.446296,0.451179,0.457282,0.464118,0.471931,0.48072,0.48658,0.493416,0.500008,0.506111,0.511238,0.515633,0.519539,0.522225,0.524178,0.522225,0.521248,0.517342,0.512459,0.507332,0.501228,0.494392,0.489509,0.481697,0.47657,0.470222,0.462654,0.454353,0.447517,0.439704,0.433845,0.428473,0.423835,0.420905,0.417487,0.417975,0.422126,0.424811,0.430182,0.437018,0.44239,0.44947,0.45362,0.458503,0.465339,0.472175,0.47779,0.484382,0.491463,0.496101,0.502937,0.508064,0.513191,0.518563,0.522469,0.52491,0.525154,0.523201,0.520272,0.516609,0.511482,0.506111,0.500496,0.494881,0.4878,0.482918,0.482185,0.483162,0.484382,0.4795,0.47071,0.457038,0.439704,0.423102,0.407233,0.39649,0.38819,0.384771,0.385016,0.388678,0.396246,0.403571,0.410407,0.420172,0.42945,0.439216,0.452155,0.466072,0.478523,0.488289,0.499519,0.508064,0.515389,0.521492,0.526375,0.529549,0.532235,0.531991,0.529793,0.526131,0.521492,0.514412,0.507088,0.499519,0.494881,0.486824,0.478767,0.471443,0.463874,0.456306,0.448981,0.441413,0.434821,0.42945,0.424567,0.419684,0.417731,0.416754,0.417731,0.420661,0.425055,0.432624,0.439948,0.447028,0.45362,0.458991,0.46656,0.473396,0.480476,0.487556,0.493904,0.500252,0.505379,0.510994,0.515633,0.519051,0.522469,0.524178,0.52491,0.522713,0.519783,0.512703,0.505867,0.49781,0.492683,0.48658,0.480964,0.471199,0.46363,0.456306,0.450935,0.442634,0.436286,0.430671,0.425544,0.421149,0.417975,0.41651,0.416022,0.418952,0.421881,0.426764,0.4336,0.438483,0.44654,0.452399,0.458503,0.46656,0.474617,0.481697,0.490974,0.497078,0.502937,0.509041,0.514168,0.518074,0.520516,0.522469,0.524666,0.523201,0.521004,0.517586,0.51368,0.506111,0.499031,0.491951,0.486336,0.480476,0.472419,0.464363,0.455573,0.448249,0.440925,0.434821,0.428962,0.42359,0.418952,0.417487,0.414801,0.415045,0.416266,0.420905,0.425544,0.431891,0.43946,0.446784,0.452888,0.458259,0.465583,0.472419,0.479011,0.487312,0.493172,0.499763,0.507332,0.511971,0.516121,0.520272,0.522713,0.52369,0.523201,0.52076,0.516854,0.510994,0.505135,0.498543,0.492195,0.486336,0.479744,0.472175,0.465095,0.456794,
0.566659,0.560067,0.545418,0.526375,0.510994,0.498299,0.497078,0.496834,0.499519,0.506844,0.521004,0.533455,0.539071,0.536385,0.525887,0.510994,0.491707,0.473152,0.467536,0.484871,0.495613,0.478767,0.461677,0.467048,0.485847,0.485603,0.461189,0.421393,0.387701,0.370367,0.374517,0.386969,0.385748,0.391608,0.393317,0.387701,0.36939,0.341802,0.321538,0.313725,0.320317,0.331304,0.352789,0.384283,0.416999,0.453864,0.487312,0.518074,0.542977,0.563241,0.570809,0.567636,0.566903,0.568856,0.571054,0.581796,0.578134,0.55079,0.519539,0.491218,0.462898,0.444343,0.442145,0.444343,0.436286,0.42945,0.431647,0.430426,0.425788,0.425544,0.425544,0.422858,0.425788,0.455818,0.52491,0.596445,0.682139,0.743175,0.761975,0.727062,0.649668,0.55494,0.467536,0.405768,0.385504,0.374517,0.34815,0.318853,0.298833,0.303227,0.327398,0.364996,0.408209,0.445075,0.478523,0.507332,0.533455,0.552499,0.55787,0.548836,0.538094,0.514656,0.479744,0.447517,0.421149,0.393805,0.373053,0.36939,0.380377,0.392828,0.414069,0.443122,0.46363,0.472663,0.474861,0.48365,0.499275,0.503426,0.498543,0.486336,0.465095,0.44654,0.433845,0.419928,0.408453,0.419928,0.452888,0.496101,0.556649,0.609384,0.635996,0.640635,0.655283,0.678965,0.674327,0.636973,0.583993,0.516854,0.445563,0.392096,0.384039,0.411872,0.441901,0.452644,0.431403,0.38819,0.344732,0.32398,0.382818,0.499519,0.635019,0.732921,0.792248,0.764904,0.656748,0.493904,0.354009,0.262211,0.185794,0.102541,0.0183108,0.0021973,0.000488289,0.000244144,0.119631,0.244144,0.353033,0.458015,0.553475,0.637461,0.707042,0.719493,0.685801,0.654063,0.642344,0.615244,0.59205,0.578134,0.542733,0.491218,0.437018,0.386725,0.34107,0.323247,0.357183,0.430182,0.505623,0.545907,0.563973,0.581796,0.600351,0.611582,0.589364,0.547127,0.503426,0.494148,0.536141,0.578378,0.569589,0.596201,0.659678,0.701915,0.721691,0.781262,0.878431,0.928969,0.900649,0.788586,0.600839,0.400397,0.263188,0.201663,0.207523,0.254643,0.231449,0.139895,0.0466316,0.00317388,0.000976577,0.000244144,0.000488289,0.0148928,0.0808118,0.167239,0.274907,0.413825,0.593515,0.730968,0.770031,0.733898,0.646006,0.580331,0.568124,0.632334,0.718517,0.787366,0.825208,0.80763,0.735851,0.619638,0.483894,0.343999,0.24683,0.216068,0.185306,0.150393,0.128908,0.131106,0.244633,0.389166,0.519783,0.63209,0.687755,0.726574,0.739025,0.681407,0.568124,0.473396,0.433845,0.419928,0.416022,0.413581,0.415045,0.39942,0.377691,0.372808,0.400885,0.446296,0.474128,0.498787,0.505867,0.501472,0.495369,0.48658,0.479744,0.509773,0.572519,0.619883,0.650645,0.675059,0.670176,0.668467,0.653819,0.606455,0.573251,0.578622,0.586435,0.584237,0.586191,0.573007,0.532235,0.466804,0.427008,0.427985,0.488777,0.636973,0.784924,0.851087,0.838392,0.756115,0.609628,0.43653,0.291264,0.19678,0.145266,0.10547,0.0771496,0.0610361,0.0517586,0.0734874,0.13257,0.188479,0.228519,0.278813,0.353277,0.40235,0.436774,0.462654,0.480964,0.488289,0.497322,0.534432,0.646006,0.765881,0.852064,0.876478,0.85304,0.803479,0.705333,0.598154,0.551034,0.539315,0.483162,0.390143,0.321294,0.281254,0.260258,0.233402,0.25098,0.295171,0.377935,0.465827,0.530037,0.569589,0.576913,0.549081,0.512703,0.478523,0.445075,0.373785,0.295415,0.23682,0.212894,0.205081,0.253178,0.357427,0.48658,0.64625,0.844739,0.941421,0.941421,0.941665,0.941665,0.912367,0.711192,0.439948,0.180179,0.000244144,0.000488289,0.000488289,0.000244144,0,0,0.0297856,0.224857,0.441657,0.620859,0.753429,0.839368,0.877943,0.87013,0.821302,0.730724,0.655772,0.638193,0.660166,0.672618,0.691173,0.725353,0.751965,0.75758,0.733165,0.624033,0.506111,0.459724,0.398932,0.328862,0.243168,0.138186,0.0563973,0.00415045,0,0,0.000488289,0.000976577,0,0.000244144,0.121096,0.268315,0.418708,0.549081,0.633799,0.711925,0.809094,0.892836,0.914321,0.866468,0.786633,0.661387,0.510994,0.393072,0.310063,0.23389,0.194583,0.205081,0.257816,0.336187,0.397223,0.425544,0.427253,0.447028,0.518807,0.573495,0.585458,0.598398,0.623789,0.632578,0.623789,0.615244,0.583993,0.544442,0.566659,0.623301,0.637949,0.634287,0.624277,0.606699,0.603037,0.59498,0.571542,0.554452,0.543709,0.520272,0.491463,0.542,0.672129,0.766857,0.783948,0.756115,0.720226,0.689464,0.60621,0.47071,0.343511,0.265629,0.20679,0.145754,0.0825208,0.0239261,0.000244144,0,0.0141604,0.148928,0.31812,0.447272,0.545418,0.618662,0.637217,0.604013,0.54493,0.501228,0.451423,0.343511,0.212894,0.144778,0.188724,0.304448,0.407233,0.473152,0.508309,0.54493,0.579843,0.599863,0.605966,0.593027,0.560311,0.500984,0.43653,0.421393,0.481697,0.550057,0.575937,0.548348,0.496834,0.449714,0.425055,0.456062,0.501961,0.530282,0.552743,0.596201,0.634043,0.651865,0.683116,0.718517,0.747326,0.76173,0.782483,0.78468,0.732433,0.638437,0.516365,0.407233,0.3252,0.234867,0.17261,0.178958,0.278325,0.368902,0.375738,0.32398,0.280522,0.282231,0.310796,0.285893,0.224857,0.145754,0.09131,0.110597,0.221927,0.372808,0.516121,0.620615,0.694591,0.753429,0.782238,0.796399,0.809583,0.785657,0.749767,0.762463,0.761486,0.705577,0.591073,0.500496,0.504646,0.512703,0.453376,0.333013,0.185306,0.124025,0.187747,0.338384,0.452644,0.469245,0.429694,0.381109,0.420661,0.505379,0.561532,0.583993,0.543954,0.464607,0.368658,0.262455,0.219486,0.246586,0.332525,0.488533,0.633066,0.690684,0.670909,0.598642,0.537362,0.527596,0.573983,0.646494,0.692393,0.67042,0.596933,0.476814,0.367681,0.288823,0.280034,0.336187,0.384527,0.421881,0.509773,0.600351,0.646006,0.66627,0.69337,0.678721,0.61622,0.556649,0.500496,0.433356,0.322271,0.194827,0.0866712,0.00170901,0.000244144,0,0.0480964,0.205325,0.387945,0.543954,0.660166,0.730236,0.775647,0.791028,0.759777,0.687022,0.595956,0.500496,0.452155,0.467781,0.568368,0.681651,0.724865,0.698497,0.66334,0.641123,0.638682,0.579355,0.432868,0.289799,0.184573,0.133059,0.149416,0.231937,0.340826,0.4336,0.453376,0.404547,0.36524,0.408698,0.491463,0.536141,0.505379,0.454108,0.400153,0.329351,0.279789,0.211917,0.199466,0.240482,0.337896,0.479011,0.62623,0.733654,0.791272,0.816907,0.809094,0.764172,0.69337,0.617197,0.570565,0.574228,0.623301,0.701183,0.754406,0.732921,0.640391,0.523445,0.484138,0.482429,0.401617,0.246098,0.0932631,0.000488289,0.000244144,0.0715343,0.209476,0.310307,0.368414,0.43653,0.547127,0.660166,0.715587,0.776135,0.842786,0.801526,0.651377,0.49659,0.371588,0.269291,0.169436,0.0988785,0.0732433,0.0629892,0.0815442,0.130373,0.168704,0.223392,0.304936,0.423102,0.592538,0.772473,0.889662,0.903334,0.828382,0.736339,0.67921,0.638193,0.570809,0.491463,0.449714,0.479744,0.570565,0.646006,0.652354,0.592782,0.485603,0.415778,0.363531,0.346929,0.343023,0.298833,0.220462,0.186038,0.204349,0.254154,0.298589,0.335943,0.385992,0.458747,0.535653,0.611093,0.675059,0.715831,0.741711,0.740002,0.696544,0.639414,0.601816,0.603037,0.628672,0.639414,0.616709,0.583017,0.517586,0.424811,0.343023,0.284672,0.23267,0.183841,0.137942,0.12549,0.181643,0.278325,0.381353,0.449714,0.486091,0.502449,0.52369,0.597177,0.677501,0.718517,0.7234,0.694835,0.668223,0.639658,0.581064,0.485847,0.38526,0.310796,0.282719,0.344732,0.437263,0.504158,0.527108,0.530526,0.526131,0.548836,0.556649,0.527352,0.455818,0.367193,0.299565,0.258305,0.26099,0.279057,0.306645,0.339605,0.367681,0.45362,0.630137,0.826429,0.941665,0.941176,0.874281,0.694591,0.468757,0.285893,0.192386,0.120363,0.0415045,0.000244144,0.000732433,0.0119631,0.094728,0.211185,0.349371,0.526864,0.704356,0.797375,0.805188,0.766125,0.692882,0.622812,0.547372,0.453132,0.388678,0.370123,0.421393,0.481209,0.50782,0.511727,0.518074,0.501961,0.473152,0.457771,0.432136,0.392096,0.366461,0.365728,0.412848,0.525643,0.638193,0.696788,0.699962,0.669932,0.617197,0.570809,0.568124,0.583993,0.600595,0.588876,0.563241,0.557626,0.554452,0.472419,0.359625,0.238773,0.120851,0.0683604,0.0952163,0.147463,0.239017,0.380865,0.495125,0.578378,0.676524,0.734874,0.74342,0.717296,0.68043,0.643076,0.618173,0.62501,0.623056,0.560311,0.462654,0.409186,0.410407,0.430426,0.452644,0.482429,0.471931,0.417487,0.353277,0.291508,0.21265,0.165286,0.160891,0.187015,0.195804,0.208743,0.263676,0.359625,0.450446,0.514656,0.567636,0.601328,0.612314,0.615732,0.654063,0.731701,0.837659,0.882338,0.817884,0.688243,0.532723,0.373785,0.264897,0.220951,0.224857,0.255863,0.304448,0.315679,0.320073,0.421149,0.563729,0.667979,0.721691,0.715343,0.668467,0.600839,0.547372,0.495125,0.412604,0.321538,0.277348,0.342535,0.446296,0.525399,0.562997,0.631846,0.72755,0.757336,0.726329,0.646983,0.552499,0.470222,0.416266,0.36524,0.329351,0.291264,0.201419,0.0871595,0.101808,0.220951,0.350347,0.424079,0.445563,0.455085,0.475837,0.475105,0.453864,0.443366,0.476326,0.536629,0.605478,0.629892,0.598642,0.537606,0.472419,0.394293,0.341314,0.30103,0.286381,0.31519,0.379644,0.486336,0.602548,0.652598,0.627695,0.573251,0.521004,0.517586,0.528084,0.536385,0.536385,0.521981,0.518074,0.541512,0.592294,0.626719,0.634531,0.638682,0.620615,0.568368,0.549081,0.498543,0.386725,0.258793,0.176516,0.157961,0.230716,0.36524,0.454108,0.463874,0.449958,0.455085,0.435554,0.365484,0.364996,0.456062,0.546395,0.601816,0.618418,0.593027,0.52369,0.496834,0.570565,0.648203,0.610117,0.500984,0.431403,0.413825,0.368658,0.302739,0.231449,0.187259,0.15845,0.149905,0.145754,0.166262,0.271977,0.445563,0.601572,0.67921,0.680919,
0.238529,0.310063,0.370367,0.424567,0.494392,0.57789,0.67335,0.790295,0.920912,0.941665,0.940932,0.941909,0.885267,0.707774,0.502693,0.297124,0.0979019,0,0.000244144,0,0,0.0915541,0.20679,0.312993,0.431891,0.575692,0.678233,0.704356,0.706554,0.70631,0.700206,0.674083,0.596689,0.471687,0.381353,0.40235,0.45655,0.508064,0.570565,0.648936,0.683116,0.666514,0.596445,0.506844,0.399664,0.280522,0.146731,0.0588388,0.0754406,0.139162,0.196536,0.278569,0.391363,0.514656,0.598886,0.647959,0.661875,0.66627,0.698985,0.785168,0.890883,0.941909,0.940688,0.941421,0.940932,0.896254,0.697765,0.403082,0.130129,0,0.000488289,0.000244144,0.000244144,0,0.000244144,0.000244144,0,0.158938,0.324468,0.465095,0.564218,0.59913,0.593027,0.579599,0.548104,0.524666,0.535409,0.568856,0.613779,0.65211,0.683848,0.705333,0.696544,0.684092,0.675547,0.708019,0.778576,0.788586,0.70338,0.591562,0.560555,0.574716,0.560311,0.488777,0.396979,0.327642,0.274907,0.248539,0.284916,0.358892,0.443854,0.50074,0.496834,0.445808,0.385504,0.347662,0.292241,0.233646,0.207767,0.221683,0.287846,0.350347,0.402106,0.482918,0.542245,0.545663,0.527596,0.543954,0.546395,0.484627,0.402838,0.34107,0.318364,0.398688,0.517586,0.60621,0.654795,0.656504,0.643565,0.594736,0.528328,0.473396,0.469245,0.521736,0.563973,0.563729,0.56495,0.590097,0.632578,0.658946,0.665537,0.629892,0.535164,0.393317,0.24683,0.136965,0.0898451,0.0854505,0.099855,0.153323,0.266606,0.380621,0.450446,0.480476,0.505867,0.528817,0.531258,0.519783,0.531258,0.557626,0.561044,0.542245,0.542489,0.587411,0.631113,0.661875,0.663828,0.624033,0.566659,0.531258,0.496101,0.479744,0.469734,0.456794,0.465095,0.560555,0.67042,0.723156,0.687999,0.645274,0.616464,0.543709,0.424811,0.305669,0.177737,0.0620127,0.0173342,0.0576181,0.147219,0.213382,0.24683,0.276127,0.32813,0.387213,0.460945,0.557626,0.638926,0.688487,0.718029,0.681407,0.615244,0.57496,0.532723,0.42359,0.316411,0.280034,0.28394,0.293217,0.31397,0.365972,0.453376,0.559579,0.65626,0.74464,0.811292,0.851331,0.839857,0.759045,0.67042,0.582528,0.484382,0.396979,0.325444,0.278813,0.276616,0.354253,0.418952,0.392096,0.366949,0.367437,0.343267,0.274907,0.229252,0.261234,0.314458,0.333501,0.318853,0.319097,0.388678,0.483894,0.595224,0.656992,0.668467,0.633066,0.590585,0.611582,0.674815,0.721935,0.741711,0.765881,0.830335,0.911879,0.941909,0.941176,0.941909,0.898451,0.721691,0.472419,0.229496,0.00854505,0.000488289,0.000488289,0.000244144,0.000488289,0,0.000244144,0.000244144,0.119631,0.245365,0.343511,0.394537,0.428962,0.473152,0.530526,0.576425,0.600839,0.609628,0.626719,0.662608,0.719982,0.770764,0.817884,0.840833,0.794202,0.715831,0.643076,0.584726,0.555184,0.552499,0.566659,0.546883,0.484871,0.457527,0.48658,0.575937,0.687266,0.719982,0.715343,0.669444,0.543465,0.411872,0.336187,0.296635,0.207034,0.0988785,0,0.000732433,0.000244144,0,0,0,0.042237,0.167239,0.330816,0.551522,0.733898,0.840833,0.896986,0.901625,0.852064,0.785657,0.704356,0.610605,0.499275,0.408698,0.36939,0.388678,0.441169,0.487312,0.513191,0.493416,0.432136,0.3794,0.409674,0.499275,0.563973,0.572274,0.549813,0.546883,0.549813,0.565438,0.553719,0.515145,0.485603,0.457771,0.417243,0.370367,0.334234,0.315679,0.299565,0.289311,0.309575,0.348882,0.397223,0.45655,0.485359,0.485115,0.514168,0.596201,0.662608,0.683848,0.704112,0.721935,0.708507,0.666514,0.645029,0.684092,0.721202,0.725841,0.677256,0.594003,0.556405,0.514168,0.494881,0.495369,0.459724,0.396002,0.272953,0.133059,0.0593271,0.0825208,0.174319,0.250004,0.255375,0.216068,0.173587,0.181643,0.243412,0.305669,0.337896,0.355474,0.423346,0.54493,0.621836,0.606943,0.526131,0.445563,0.366217,0.336187,0.361822,0.445075,0.553231,0.65626,0.703624,0.694347,0.648203,0.607919,0.579599,0.541024,0.489754,0.431403,0.370855,0.326665,0.325444,0.361089,0.403326,0.44654,0.474372,0.502205,0.553475,0.606699,0.617929,0.565682,0.47657,0.430182,0.446784,0.476326,0.481941,0.469978,0.447761,0.441901,0.4607,0.501472,0.538094,0.586923,0.624033,0.614267,0.572274,0.513924,0.466072,0.432624,0.419196,0.429694,0.43946,0.449714,0.465827,0.480232,0.499031,0.547372,0.628183,0.684581,0.72047,0.761486,0.763195,0.779065,0.850843,0.871595,0.772473,0.593759,0.368658,0.140871,0.000244144,0.000244144,0.000244144,0,0,0,0.107668,0.225834,0.328374,0.379156,0.370123,0.35108,0.35816,0.398688,0.459724,0.543954,0.614511,0.659922,0.689464,0.715831,0.723888,0.694102,0.631113,0.541024,0.479744,0.531991,0.63209,0.709728,0.742687,0.725353,0.669688,0.605966,0.560311,0.548348,0.534432,0.489998,0.448249,0.417243,0.334966,0.256107,0.25098,0.285161,0.332036,0.387945,0.427741,0.408942,0.351812,0.316899,0.338872,0.373785,0.412848,0.46949,0.521981,0.559091,0.57496,0.567636,0.557137,0.516365,0.452399,0.391119,0.355718,0.36524,0.387457,0.403082,0.430671,0.484627,0.527596,0.552743,0.58912,0.641123,0.601328,0.489021,0.359136,0.271733,0.292485,0.389166,0.515389,0.597421,0.605722,0.598398,0.633555,0.659922,0.64332,0.588388,0.482673,0.32105,0.204349,0.193362,0.222904,0.240238,0.259037,0.294682,0.341314,0.385016,0.426032,0.464607,0.489265,0.509285,0.549081,0.585946,0.591318,0.567391,0.504158,0.422614,0.388434,0.41236,0.47364,0.575448,0.655283,0.667002,0.632822,0.626474,0.650889,0.629648,0.557626,0.484627,0.427008,0.385992,0.373541,0.408942,0.498543,0.568124,0.586191,0.577157,0.568368,0.565682,0.533455,0.461189,0.390631,0.366705,0.356451,0.343999,0.318608,0.300298,0.293217,0.288579,0.301762,0.339605,0.383062,0.401862,0.380133,0.353521,0.368414,0.450446,0.565194,0.631846,0.647715,0.656504,0.677012,0.698253,0.73048,0.768566,0.775891,0.785657,0.734142,0.599619,0.511727,0.505379,0.517342,0.504158,0.418219,0.276616,0.140627,0.0605478,0.0900893,0.169924,0.230228,0.261723,0.314702,0.395758,0.456306,0.481453,0.485603,0.474372,0.417487,0.343511,0.333501,0.387945,0.457038,0.507332,0.541268,0.551522,0.551278,0.558846,0.581308,0.602792,0.604501,0.590829,0.573251,0.553231,0.548592,0.560067,0.576913,0.569345,0.5149,0.464607,0.445075,0.424567,0.383795,0.371344,0.396735,0.408698,0.412848,0.440925,0.482673,0.499275,0.477546,0.44654,0.454353,0.458503,0.439216,0.413825,0.41529,0.42945,0.426764,0.417487,0.435554,0.47364,0.517098,0.563485,0.585702,0.601816,0.660655,0.73756,0.795911,0.832044,0.846937,0.833509,0.769787,0.697765,0.585458,0.407965,0.238529,0.130617,0.0666514,0.0324712,0.0336919,0.0402838,0.0754406,0.159426,0.26099,0.350103,0.373297,0.376715,0.416266,0.501472,0.55787,0.5608,0.499275,0.421149,0.417243,0.500008,0.521004,0.475593,0.444587,0.475349,0.531991,0.560555,0.540536,0.501961,0.481941,0.452644,0.406989,0.386725,0.437751,0.495369,0.532235,0.5149,0.5149,0.559091,0.59791,0.614511,0.596689,0.547616,0.515877,0.500984,0.521248,0.550546,0.556649,0.527108,0.457527,0.416754,0.414313,0.437507,0.469978,0.505623,0.529793,0.556405,0.579843,0.594491,0.601328,0.564706,0.478523,0.350103,0.218509,0.14966,0.174075,0.20264,0.208255,0.213382,0.252201,0.32398,0.401862,0.475837,0.534188,0.573739,0.617929,0.658213,0.690196,0.693858,0.6692,0.649668,0.643809,0.651865,0.700694,0.768566,0.810803,0.81593,0.790295,0.730236,0.640635,0.523445,0.402106,0.299321,0.236576,0.24097,0.286625,0.332036,0.347173,0.310796,0.240482,0.162844,0.107424,0.074464,0.0349126,0.0100099,0.0686046,0.193606,0.320317,0.42237,0.501472,0.561288,0.595468,0.615,0.632578,0.643565,0.650401,0.652842,0.648447,0.643565,0.63331,0.607431,0.578134,0.582284,0.60621,0.63209,0.643809,0.656504,0.701183,0.730236,0.720958,0.701427,0.677012,0.647715,0.58912,0.523201,0.45069,0.344244,0.230228,0.162112,0.136233,0.115236,0.1084,0.140383,0.182376,0.240482,0.309087,0.352544,0.4065,0.500496,0.583261,0.618418,0.607675,0.570809,0.514656,0.449958,0.391363,0.3794,0.403326,0.438239,0.490486,0.570565,0.638926,0.675059,0.676036,0.655283,0.615732,0.570809,0.519783,0.473152,0.409674,0.343511,0.317144,0.342779,0.411383,0.500984,0.582528,0.653086,0.685801,0.675792,0.629648,0.576669,0.511727,0.430671,0.347173,0.286381,0.254154,0.226078,0.210452,0.210208,0.22681,0.273442,0.344244,0.410895,0.462165,0.462898,0.423835,0.410651,0.442634,0.496101,0.537118,0.562509,0.574228,0.57789,0.570077,0.566659,0.588388,0.652598,0.719982,0.77174,0.790295,0.7776,0.737072,0.701671,0.688487,0.675059,0.617197,0.502693,0.39942,0.347662,0.292485,0.210208,0.13843,0.0974136,0.0759289,0.0476081,0.0234379,0.0544442,0.133791,0.224857,0.313481,0.390875,0.474617,0.576425,0.655772,0.678233,0.687022,0.687022,0.673594,0.646738,0.611337,0.538094,0.425055,0.362554,0.358892,0.398932,0.44947,0.474128,0.471687,0.44239,0.382818,0.382086,0.444831,0.521736,0.555673,0.541756,0.530526,0.560311,0.625986,0.695079,0.731701,0.720226,0.660166,0.585702,0.493172,0.416022,0.366949,0.325444,0.275883,0.218265,0.17969,0.199466,0.250736,0.304936,0.341314,0.367681,0.403815,0.442878,0.481209,0.517098,0.548348,0.580331,0.613046,0.640635,0.646983,0.633066,0.604257,0.581552,0.567391,0.559579,0.548836,0.544442,0.578134,0.630869,0.657237,0.644053,0.607431,0.5691,0.526375,0.480964,0.447272,0.425788,0.395514,0.353521,0.335943,0.342046,0.353765,0.358404,0.351568,0.33106,0.310796,0.307378,0.313481,0.330571,0.365484,0.406744,0.438727,0.462165,0.475837,0.48365,0.498299,0.516854,0.524178,
