0.793957,0.793713,0.794202,0.688243,0.571054,0.530037,0.497566,0.473396,0.456062,0.443122,0.433356,0.426276,0.418463,0.415778,0.413825,0.412604,0.412116,0.411872,0.411383,0.411139,0.411383,0.411139,0.411139,0.442878,0.612802,0.664561,0.705089,0.731456,0.749523,0.762707,0.772473,0.779309,0.780041,0.784924,0.788342,0.790295,0.791516,0.792248,0.792737,0.792981,0.793469,0.793713,0.793469,0.794202,0.668711,0.56495,0.526619,0.494392,0.471199,0.454353,0.441657,0.432624,0.425788,0.417975,0.41529,0.413825,0.412604,0.412116,0.412116,0.411383,0.411139,0.411383,0.411383,0.410163,0.449714,0.611582,0.663584,0.704112,0.730236,0.749523,0.762463,0.771496,0.779797,0.780041,0.78468,0.78761,0.789807,0.792004,0.79176,0.792248,0.792248,0.792737,0.792493,0.792737,0.793469,0.642832,0.556893,0.520272,0.49073,0.468269,0.451667,0.439948,0.431403,0.424811,0.416999,0.414801,0.413336,0.412116,0.411872,0.411627,0.411383,0.411383,0.411139,0.411139,0.411139,0.458015,0.611093,0.662608,0.702892,0.729747,0.748302,0.761486,0.771008,0.778088,0.779553,0.784436,0.787366,0.790295,0.792248,0.792004,0.792493,0.792737,0.793469,0.793713,0.793713,0.794934,0.628672,0.552743,0.51783,0.488289,0.466804,0.45069,0.439216,0.430671,0.423835,0.416999,0.414557,0.413336,0.412116,0.411872,0.411383,0.411383,0.411627,0.411139,0.411139,0.411139,0.462898,0.610361,0.662119,0.70338,0.729503,0.749279,0.76173,0.771496,0.779309,0.779797,0.783948,0.787366,0.789807,0.791272,0.79176,0.792248,0.792737,0.792981,0.792981,0.793957,0.793713,0.601572,0.54493,0.511727,0.484138,0.463142,0.448249,0.437507,0.42945,0.423346,0.416022,0.414313,0.412848,0.41236,0.411383,0.411383,0.411139,0.411383,0.410895,0.411383,0.411139,0.47657,0.609384,0.661631,0.702647,0.729747,0.749279,0.760754,0.771252,0.778088,0.779553,0.783215,0.787366,0.789319,0.790539,0.790539,0.791516,0.792004,0.792493,0.792493,0.792737,0.793469,0.587655,0.537606,0.506111,0.479988,0.4607,0.446296,0.435798,0.427741,0.422614,0.415534,0.414069,0.413092,0.412116,0.411139,0.411383,0.410407,0.410895,0.411139,0.410895,0.410895,0.488533,0.607675,0.662364,0.699962,0.72755,0.746105,0.759777,0.769787,0.776867,0.777844,0.782971,0.786389,0.789075,0.790784,0.791516,0.792248,0.793225,0.792981,0.794202,0.793225,0.794202,0.586435,0.537118,0.506111,0.479988,0.460212,0.446052,0.435554,0.427741,0.42237,0.415045,0.413825,0.41236,0.411383,0.410895,0.411139,0.411383,0.410895,0.411139,0.411139,0.410651,0.50074,0.606943,0.662852,0.699718,0.726818,0.746349,0.760021,0.770275,0.777356,0.77882,0.783459,0.787121,0.789563,0.790051,0.79176,0.792737,0.792248,0.792737,0.792737,0.792981,0.793225,0.585214,0.535897,0.505135,0.479011,0.460212,0.445563,0.435309,0.427741,0.418708,0.415534,0.414313,0.41236,0.41236,0.411383,0.411383,0.411139,0.411139,0.411139,0.411139,0.410895,0.509773,0.605722,0.662364,0.699229,0.726818,0.746349,0.760021,0.769787,0.777111,0.778332,0.783215,0.786389,0.78883,0.790295,0.791028,0.79176,0.792004,0.792493,0.792493,0.792737,0.783948,0.58497,0.536385,0.505623,0.4795,0.460212,0.445563,0.435554,0.427985,0.417975,0.416022,0.414313,0.412604,0.412116,0.412116,0.411627,0.411383,0.410895,0.411139,0.410895,0.410651,0.531258,0.611337,0.665782,0.701427,0.728038,0.747326,0.760266,0.769543,0.777356,0.777844,0.782483,0.785901,0.788342,0.790051,0.791272,0.792004,0.792004,0.793713,0.793469,0.793469,0.776867,0.585458,0.536873,0.506111,0.479744,0.459724,0.445808,0.435309,0.427741,0.418952,0.416022,0.414313,0.412848,0.411872,0.411872,0.411872,0.411139,0.410895,0.410895,0.410895,0.410895,0.552987,0.623789,0.674815,0.708995,0.733165,0.7505,0.762707,0.772229,0.77882,0.779797,0.783948,0.787121,0.789563,0.791272,0.792737,0.792248,0.792737,0.792981,0.792981,0.792981,0.771984,0.585702,0.537362,0.505135,0.480232,0.4607,0.446296,0.436042,0.427985,0.419196,0.416266,0.414313,0.412848,0.41236,0.412116,0.411872,0.411383,0.411139,0.411139,0.411383,0.411139,0.568612,0.634775,0.684092,0.715831,0.738293,0.754162,0.765881,0.774426,0.781018,0.781018,0.783948,0.788342,0.789319,0.791028,0.791272,0.792004,0.792737,0.792493,0.792493,0.792248,0.762219,0.587655,0.538582,0.507088,0.480476,0.460945,0.446784,0.437018,0.428717,0.418708,0.416754,0.414313,0.413092,0.41236,0.412116,0.411383,0.410895,0.410895,0.411383,0.410407,0.411383,0.588144,0.648203,0.692638,0.722179,0.74342,0.758312,0.768811,0.776135,0.781018,0.78175,0.785412,0.788342,0.790051,0.792004,0.79176,0.792981,0.792981,0.793469,0.793225,0.793469,0.759533,0.58912,0.539803,0.508064,0.481697,0.461921,0.447272,0.437018,0.428717,0.419928,0.416999,0.414557,0.413336,0.41236,0.412116,0.410895,0.411383,0.411139,0.411627,0.410895,0.421149,0.600839,0.655772,0.698985,0.726329,0.745373,0.760021,0.770031,0.7776,0.781994,0.782727,0.786389,0.789563,0.791272,0.792248,0.792737,0.792981,0.793469,0.792981,0.793225,0.793469,0.734874,0.582284,0.53492,0.504402,0.478767,0.459968,0.445808,0.435798,0.427985,0.419196,0.41651,0.414313,0.413092,0.412116,0.412116,0.411627,0.411139,0.411139,0.411383,0.411383,0.431159,0.614755,0.666026,0.70753,0.732921,0.750988,0.763684,0.773449,0.779797,0.783948,0.784436,0.787366,0.789563,0.791272,0.792737,0.791028,0.792981,0.793225,0.792981,0.794202,0.793469,0.719982,0.578622,0.532235,0.502693,0.477058,0.45948,0.445319,0.434821,0.427741,0.418952,0.416022,0.414313,0.413336,0.412116,0.411872,0.411627,0.411139,0.410895,0.411627,0.411383,0.436042,0.614267,0.664561,0.706065,0.731701,0.7505,0.762951,0.771984,0.778576,0.782727,0.783459,0.786633,0.789075,0.791516,0.791272,0.792004,0.792981,0.793225,0.792981,0.793957,0.794202,0.699474,0.573495,0.528573,0.499275,0.475105,0.457282,0.443854,0.434089,0.427008,0.418463,0.415534,0.414069,0.412848,0.412116,0.412116,0.411872,0.411383,0.412116,0.411383,0.411139,0.444099,0.612558,0.663584,0.704845,0.731701,0.749279,0.762463,0.772229,0.779065,0.783703,0.784192,0.78761,0.789563,0.791272,0.792248,0.792737,0.793469,0.793713,0.792248,0.793957,0.793469,0.681651,0.568612,0.525154,0.497078,0.473152,0.455818,0.442878,0.432868,0.426276,0.42237,0.415534,0.413825,0.41236,0.411627,0.411139,0.411383,0.411139,0.410651,0.411383,0.411383,0.410895,0.588876,0.648203,0.689464,0.722911,0.744396,0.759045,0.768811,0.776867,0.781506,0.782727,0.785657,0.788586,0.790051,0.791028,0.792248,0.792493,0.792981,0.793957,0.793469,0.793957,0.760266,0.588876,0.540047,0.508309,0.481941,0.462165,0.447517,0.436774,0.428473,0.422858,0.415778,0.414069,0.41236,0.411872,0.411627,0.411383,0.411139,0.410895,0.410895,0.411139,0.421881,0.601816,0.656992,0.696056,0.728527,0.748058,0.760754,0.771496,0.778576,0.783215,0.783215,0.787121,0.789563,0.791272,0.792981,0.792737,0.793469,0.793469,0.793957,0.793713,0.793957,0.739025,0.583261,0.535409,0.505379,0.479744,0.460945,0.446296,0.435798,0.428473,0.42237,0.415778,0.414069,0.412848,0.410895,0.410163,0.411139,0.411383,0.411139,0.411383,0.410407,0.42652,0.611826,0.664317,0.701427,0.732189,0.7505,0.763439,0.773205,0.779309,0.783703,0.783703,0.786633,0.78883,0.790295,0.79176,0.792004,0.792737,0.792248,0.792981,0.792737,0.793713,0.722423,0.57911,0.532479,0.503426,0.478035,0.45948,0.444343,0.435554,0.428229,0.422858,0.415534,0.413825,0.412848,0.411627,0.411872,0.410895,0.411383,0.411139,0.411383,0.411139,0.433356,0.614511,0.665049,0.702159,0.732677,0.750256,0.763684,0.772229,0.779065,0.783703,0.783215,0.786633,0.789319,0.790295,0.792004,0.792493,0.793225,0.793225,0.793469,0.793469,0.793713,0.697032,0.572763,0.528573,0.499275,0.474861,0.457038,0.444099,0.434089,0.427008,0.421881,0.415045,0.413581,0.41236,0.410895,0.411383,0.411139,0.410895,0.411383,0.411139,0.410895,0.441657,0.612558,0.664317,0.701671,0.731701,0.750011,0.763195,0.772717,0.779553,0.783948,0.784192,0.788098,0.790051,0.791272,0.793225,0.792493,0.793469,0.793225,0.793225,0.792737,0.793469,0.668467,0.56495,0.522469,0.495613,0.471687,0.455085,0.44239,0.432868,0.426276,0.421393,0.414313,0.412848,0.412116,0.411383,0.410651,0.411139,0.411383,0.411139,0.411383,0.411383,0.448249,0.611582,0.662608,0.70045,0.731456,0.749523,0.762219,0.771496,0.77882,0.783215,0.782971,0.786389,0.789319,0.790784,0.791516,0.792493,0.792737,0.792737,0.792737,0.792493,0.793713,0.650889,0.559579,0.518807,0.492683,0.470222,0.45362,0.441657,0.432136,0.426032,0.421149,0.414313,0.413092,0.411627,0.411139,0.411627,0.411139,0.411139,0.411139,0.411383,0.411139,0.457282,0.610605,0.662608,0.703136,0.730236,0.750011,0.76173,0.771984,0.778088,0.782727,0.782483,0.785901,0.78883,0.791272,0.792004,0.793225,0.793225,0.793225,0.793957,0.793713,0.795178,0.625742,0.552499,0.513191,0.488777,0.467048,0.451179,0.43946,0.430915,0.423835,0.41651,0.414557,0.412848,0.41236,0.411627,0.411383,0.410895,0.410895,0.411139,0.410651,0.411139,0.464607,0.610117,0.661875,0.703624,0.730236,0.749035,0.762219,0.771252,0.778088,0.783215,0.782727,0.786389,0.790051,0.790784,0.79176,0.792493,0.792004,0.792981,0.793469,0.792981,0.793713,0.596201,0.542977,0.506844,0.483894,0.46363,0.448005,0.437018,0.428962,0.422858,0.416022,0.413336,0.412116,0.411383,0.411383,0.411383,0.411139,0.410895,0.410895,0.411139,0.411383,0.475837,0.60914,0.661631,0.702403,0.729503,0.748058,0.761486,0.771496,0.777844,0.782483,0.782238,0.785901,0.788586,0.790295,0.791516,0.791516,0.792981,0.792981,
0.792981,0.792737,0.793469,0.5879,0.537606,0.503426,0.481453,0.461677,0.447272,0.436286,0.428229,0.422614,0.41529,0.413092,0.412116,0.411627,0.411383,0.411139,0.410651,0.410651,0.410895,0.410407,0.411383,0.487312,0.607919,0.659922,0.701427,0.727794,0.746838,0.760021,0.770031,0.776623,0.781994,0.781262,0.786145,0.789075,0.790539,0.79176,0.792493,0.792981,0.793469,0.793469,0.793957,0.794446,0.587655,0.537606,0.502449,0.480232,0.461189,0.44654,0.436042,0.428229,0.422614,0.41529,0.413581,0.412604,0.411627,0.411627,0.411139,0.410651,0.410895,0.410895,0.410895,0.410651,0.499275,0.60621,0.658701,0.700694,0.727794,0.74757,0.760754,0.77052,0.777356,0.781994,0.782483,0.786389,0.789075,0.790539,0.791272,0.792248,0.792981,0.792737,0.792737,0.792737,0.792737,0.583993,0.535653,0.501472,0.4795,0.460212,0.445808,0.435554,0.427741,0.42237,0.415534,0.413581,0.411872,0.411627,0.411383,0.411139,0.410895,0.411139,0.410895,0.410895,0.410651,0.508064,0.606699,0.658701,0.70045,0.727062,0.746838,0.760021,0.768811,0.776379,0.78175,0.782971,0.785901,0.788586,0.789807,0.791028,0.79176,0.792248,0.793225,0.792737,0.792248,0.782971,0.585458,0.536141,0.501961,0.480232,0.4607,0.446296,0.435798,0.427985,0.42237,0.415045,0.413336,0.41236,0.411383,0.411383,0.410895,0.410895,0.410895,0.410651,0.411139,0.411139,0.537606,0.613535,0.66334,0.703136,0.729747,0.747814,0.761242,0.77052,0.776867,0.78175,0.782238,0.786877,0.788586,0.790295,0.791516,0.792248,0.792981,0.792737,0.792981,0.793225,0.775647,0.585702,0.537118,0.502449,0.480232,0.460945,0.44654,0.435798,0.427985,0.422614,0.41529,0.413581,0.412116,0.411627,0.411383,0.411139,0.411139,0.410651,0.410651,0.411383,0.411139,0.550546,0.621592,0.670176,0.708751,0.734142,0.751232,0.763684,0.772717,0.779309,0.783215,0.783703,0.787121,0.789563,0.790539,0.791516,0.792004,0.792493,0.792737,0.792737,0.792981,0.769787,0.586435,0.537606,0.503182,0.481209,0.460456,0.446784,0.43653,0.428717,0.422614,0.415534,0.413581,0.41236,0.411627,0.411627,0.411139,0.410895,0.410895,0.411139,0.410895,0.410895,0.566659,0.633066,0.678233,0.715099,0.73756,0.753918,0.765393,0.773693,0.779553,0.783948,0.783459,0.786877,0.78883,0.790539,0.791028,0.79176,0.791516,0.792248,0.792493,0.792981,0.761975,0.588388,0.539071,0.504158,0.482429,0.462654,0.447761,0.437263,0.428473,0.423102,0.415534,0.414069,0.412848,0.411383,0.411383,0.411383,0.411139,0.411139,0.411139,0.411139,0.411139,0.583017,0.645029,0.687266,0.721202,0.742687,0.75758,0.767834,0.776135,0.781506,0.784924,0.784924,0.787854,0.789807,0.791516,0.792004,0.792737,0.792981,0.793713,0.793469,0.793469,0.757336,0.589364,0.540047,0.505135,0.482673,0.462898,0.448249,0.437263,0.429206,0.422614,0.41529,0.414313,0.41236,0.412116,0.411627,0.411383,0.411139,0.411383,0.411139,0.411383,0.421149,0.599374,0.655039,0.694591,0.72755,0.74757,0.760754,0.770764,0.778576,0.782971,0.786389,0.785412,0.789075,0.790295,0.792004,0.792493,0.792981,0.793469,0.793469,0.793713,0.793713,0.735363,0.582528,0.53492,0.501472,0.480232,0.460945,0.446784,0.436286,0.428473,0.422858,0.415534,0.413825,0.412604,0.412116,0.411872,0.411383,0.411383,0.411383,0.411383,0.411139,0.427741,0.614755,0.666026,0.702647,0.732921,0.75172,0.763684,0.773449,0.779309,0.783703,0.78761,0.786145,0.788342,0.790295,0.791272,0.792248,0.792981,0.792981,0.793225,0.793713,0.793713,0.715099,0.577157,0.531502,0.498787,0.47779,0.459236,0.445075,0.435065,0.427497,0.422126,0.415045,0.413581,0.41236,0.411872,0.411139,0.410895,0.411139,0.411383,0.410895,0.411139,0.435798,0.613535,0.665049,0.701915,0.732677,0.750988,0.763439,0.772229,0.779553,0.784192,0.787121,0.786145,0.78883,0.791272,0.792004,0.792493,0.792981,0.794202,0.793225,0.793713,0.793469,0.697032,0.572763,0.528084,0.499519,0.475105,0.456306,0.443854,0.434089,0.427008,0.421881,0.414801,0.413092,0.41236,0.410651,0.411627,0.411383,0.411383,0.411139,0.411383,0.411383,0.443366,0.612558,0.664317,0.701671,0.732677,0.750744,0.763928,0.773205,0.779797,0.784436,0.787121,0.785901,0.788586,0.790539,0.792004,0.792493,0.792493,0.792981,0.792981,0.793469,0.793469,0.678233,0.567636,0.524666,0.496834,0.473152,0.455818,0.442145,0.433112,0.426276,0.421393,0.414313,0.413092,0.412116,0.411383,0.411383,0.411383,0.410895,0.411139,0.410895,0.411139,0.45362,0.611582,0.663584,0.70045,0.731701,0.749523,0.762463,0.77174,0.778576,0.782727,0.782483,0.786145,0.788342,0.790051,0.791028,0.791516,0.792248,0.793225,0.793469,0.793469,0.793713,0.649424,0.559335,0.518807,0.492195,0.47071,0.453376,0.441169,0.431647,0.425544,0.421149,0.414069,0.412848,0.412116,0.411627,0.411383,0.411383,0.411139,0.410895,0.410895,0.410895,0.464363,0.609628,0.661631,0.698985,0.73048,0.748791,0.761975,0.771008,0.778332,0.783215,0.783948,0.787366,0.789563,0.791272,0.792248,0.792248,0.792981,0.793225,0.792981,0.792981,0.793957,0.626963,0.552255,0.51368,0.488777,0.467292,0.451423,0.439216,0.431159,0.424323,0.420172,0.413092,0.412116,0.411383,0.411139,0.411383,0.411139,0.410895,0.410895,0.411139,0.411139,0.47364,0.60914,0.661143,0.698985,0.73048,0.749767,0.761975,0.77174,0.778088,0.782727,0.781994,0.785657,0.788586,0.790295,0.791516,0.792004,0.792493,0.792737,0.792981,0.792981,0.793469,0.604746,0.54493,0.508797,0.484871,0.464607,0.449226,0.437995,0.429938,0.424079,0.419684,0.413092,0.411872,0.410895,0.410895,0.410895,0.411139,0.411139,0.410895,0.410895,0.411139,0.486336,0.608164,0.659922,0.697765,0.729015,0.74757,0.760754,0.770275,0.777356,0.781994,0.782238,0.785657,0.789075,0.789075,0.790539,0.792004,0.792248,0.792737,0.792981,0.793469,0.793225,0.589853,0.538827,0.503914,0.481941,0.462165,0.447272,0.43653,0.428229,0.422614,0.418463,0.41236,0.410895,0.411139,0.411139,0.410895,0.410651,0.410895,0.411139,0.411139,0.410895,0.495369,0.606699,0.658946,0.696788,0.728283,0.74757,0.760998,0.770764,0.778576,0.782727,0.782727,0.786389,0.789075,0.790784,0.792004,0.792981,0.792493,0.793469,0.792981,0.792981,0.793957,0.587167,0.537606,0.502937,0.48072,0.461189,0.446296,0.436286,0.428229,0.422614,0.414313,0.412604,0.412116,0.411872,0.411627,0.411383,0.411383,0.411139,0.411139,0.411383,0.453132,0.611337,0.66334,0.700694,0.731701,0.749523,0.762463,0.771984,0.77882,0.783703,0.786877,0.785901,0.788586,0.790295,0.792004,0.792248,0.792737,0.792737,0.792493,0.792981,0.793469,0.643076,0.557626,0.516854,0.487556,0.470466,0.45362,0.441413,0.43238,0.425544,0.420905,0.414313,0.412604,0.411627,0.411627,0.411139,0.411383,0.410895,0.411383,0.410163,0.410895,0.462165,0.610605,0.662119,0.699962,0.731456,0.751232,0.762463,0.771984,0.778576,0.783459,0.786145,0.785412,0.788586,0.790295,0.791272,0.79176,0.792493,0.792981,0.792737,0.793225,0.793469,0.610849,0.546883,0.510018,0.482673,0.466072,0.449958,0.438727,0.430671,0.424811,0.419928,0.413336,0.412116,0.411383,0.411139,0.410895,0.411383,0.410895,0.411139,0.411139,0.411139,0.471931,0.609628,0.662119,0.699474,0.73048,0.749035,0.762219,0.771496,0.778332,0.782727,0.786145,0.785412,0.78761,0.790539,0.791516,0.792004,0.793225,0.793225,0.792981,0.793469,0.793713,0.58912,0.538338,0.50367,0.478279,0.462654,0.447272,0.437018,0.428473,0.423102,0.418952,0.412604,0.411627,0.411383,0.410651,0.411139,0.410895,0.410895,0.410895,0.410895,0.411383,0.480232,0.607919,0.660166,0.698009,0.729992,0.748547,0.761975,0.771496,0.778088,0.782238,0.786389,0.785901,0.78883,0.790295,0.790784,0.792248,0.792493,0.792737,0.792981,0.793713,0.793469,0.587167,0.537606,0.502937,0.477546,0.462165,0.447028,0.437263,0.428229,0.422126,0.418952,0.412116,0.411872,0.411139,0.411139,0.411139,0.411139,0.411139,0.411383,0.411139,0.411139,0.489754,0.607675,0.659922,0.698253,0.729503,0.749035,0.761242,0.77052,0.777844,0.782727,0.785901,0.784924,0.788586,0.789319,0.790539,0.791272,0.792004,0.792737,0.792248,0.792981,0.792981,0.585214,0.536141,0.501961,0.477058,0.461921,0.44654,0.436286,0.428717,0.42237,0.418952,0.41236,0.411383,0.410895,0.410895,0.410895,0.410895,0.410895,0.410895,0.410895,0.410895,0.501961,0.607187,0.658701,0.697032,0.729015,0.747082,0.760754,0.770031,0.776867,0.782727,0.785657,0.784924,0.78883,0.789563,0.791272,0.791272,0.792493,0.792004,0.792493,0.793225,0.786633,0.585702,0.536629,0.501961,0.477302,0.461189,0.447028,0.436774,0.428473,0.422614,0.418952,0.41236,0.411627,0.411139,0.411139,0.410651,0.411139,0.410163,0.411139,0.411139,0.410895,0.511971,0.605478,0.658701,0.696788,0.728527,0.748302,0.761486,0.770764,0.7776,0.782483,0.786633,0.785412,0.788098,0.789807,0.790784,0.791272,0.791272,0.792004,0.792493,0.792737,0.779065,0.585458,0.536629,0.502205,0.477302,0.462654,0.447272,0.437018,0.428962,0.42237,0.418463,0.41236,0.411383,0.410895,0.410895,0.410895,0.410895,0.410651,0.411139,0.411139,0.411139,0.533211,0.611826,0.662608,0.699962,0.730236,0.748791,0.760998,0.771008,0.7776,0.781994,0.785657,0.784436,0.787366,0.789319,0.790295,0.791272,0.790539,0.792004,0.792981,0.792981,0.773205,0.586435,0.537362,0.502693,0.475837,0.462165,0.447761,0.437018,0.428473,0.423102,0.418952,0.412848,0.411627,0.411383,0.411139,0.411139,0.411139,0.411383,0.410895,0.410895,0.410895,0.549081,0.620859,0.669444,0.704601,0.734386,0.751476,0.763195,0.772473,0.778332,0.782727,0.786145,0.785901,0.787854,0.789807,0.791272,0.792004,0.792248,0.792981,0.792981,
0.539559,0.520516,0.503914,0.491951,0.480964,0.472908,0.467292,0.453864,0.450446,0.44947,0.447272,0.446052,0.445075,0.443854,0.443366,0.442878,0.455085,0.510262,0.542245,0.571054,0.59498,0.623301,0.638193,0.649668,0.659434,0.667247,0.672129,0.671153,0.675792,0.680919,0.684337,0.687266,0.68922,0.691417,0.692882,0.694591,0.695567,0.66041,0.609873,0.57911,0.553475,0.540047,0.521004,0.506355,0.492195,0.481453,0.472908,0.466804,0.453132,0.45069,0.448981,0.447272,0.445808,0.445075,0.444099,0.444099,0.443122,0.458503,0.516609,0.548348,0.576425,0.599863,0.624033,0.642588,0.653574,0.661875,0.669932,0.674815,0.671153,0.676768,0.681163,0.684581,0.685801,0.689952,0.691417,0.693614,0.694835,0.695567,0.650889,0.606699,0.576181,0.55079,0.538827,0.52076,0.504158,0.491218,0.479988,0.472419,0.466072,0.452644,0.450446,0.448493,0.44361,0.44654,0.444831,0.443122,0.44361,0.442878,0.461433,0.521736,0.553231,0.583017,0.603037,0.629404,0.643565,0.654551,0.66334,0.670176,0.676036,0.672129,0.677501,0.681895,0.685557,0.688487,0.690684,0.692393,0.693858,0.694835,0.695811,0.644785,0.605722,0.574228,0.549813,0.538338,0.518807,0.503182,0.490486,0.4795,0.472175,0.466804,0.453376,0.451179,0.448981,0.447028,0.445808,0.445075,0.443854,0.442634,0.443122,0.464363,0.526619,0.555673,0.583261,0.605722,0.632578,0.645274,0.656016,0.664317,0.670176,0.677989,0.673106,0.678721,0.683116,0.686046,0.688487,0.690929,0.692882,0.694347,0.695567,0.6963,0.638682,0.60206,0.572519,0.54786,0.535897,0.517586,0.503182,0.489998,0.478767,0.472175,0.465583,0.452155,0.449714,0.448249,0.447028,0.445319,0.447028,0.443366,0.44361,0.443122,0.471199,0.52491,0.556161,0.583505,0.605722,0.632822,0.645762,0.656016,0.664073,0.671153,0.67628,0.672129,0.678233,0.682872,0.685069,0.689708,0.690929,0.692638,0.693858,0.695323,0.696544,0.633066,0.598398,0.568124,0.545174,0.532967,0.515633,0.50074,0.488533,0.478523,0.471199,0.465095,0.451423,0.44947,0.450202,0.44654,0.445563,0.444587,0.44361,0.443122,0.442878,0.475349,0.524422,0.555917,0.582528,0.604257,0.631846,0.645029,0.655772,0.664317,0.671153,0.677012,0.672129,0.677989,0.682628,0.685557,0.688243,0.690684,0.692393,0.694835,0.695567,0.6963,0.627939,0.593515,0.565682,0.542245,0.531014,0.513191,0.498299,0.486091,0.477058,0.47071,0.465339,0.450935,0.449226,0.447517,0.446296,0.444831,0.443854,0.44361,0.442878,0.442634,0.476326,0.524422,0.555673,0.582284,0.613046,0.629892,0.643809,0.652354,0.662364,0.6692,0.675792,0.671885,0.677745,0.681895,0.685801,0.68751,0.689708,0.69044,0.693614,0.694591,0.695567,0.62208,0.58912,0.561776,0.539315,0.528573,0.510994,0.49659,0.484871,0.474617,0.469001,0.463386,0.44947,0.448493,0.447517,0.444831,0.445319,0.445808,0.443366,0.442878,0.44239,0.485115,0.524178,0.554208,0.58204,0.613535,0.627939,0.642832,0.653819,0.662608,0.670176,0.675547,0.672374,0.677256,0.681651,0.685313,0.687999,0.69044,0.692393,0.693858,0.695079,0.692393,0.617929,0.585702,0.558846,0.536629,0.526864,0.509773,0.495857,0.48365,0.474617,0.468757,0.455573,0.451667,0.448493,0.447761,0.44654,0.445563,0.444587,0.44361,0.44361,0.441901,0.489998,0.523201,0.55494,0.581796,0.612558,0.629404,0.643076,0.655283,0.662852,0.671153,0.676036,0.671641,0.676036,0.681407,0.684825,0.68751,0.690196,0.690929,0.693614,0.694591,0.688487,0.610605,0.579355,0.553475,0.531991,0.522957,0.5066,0.493416,0.481697,0.474372,0.466804,0.453132,0.450446,0.448249,0.447028,0.44654,0.445075,0.44361,0.443366,0.442878,0.44361,0.493904,0.525399,0.555428,0.581796,0.61207,0.629404,0.64332,0.653574,0.662119,0.669444,0.675059,0.671153,0.676524,0.680919,0.684337,0.68751,0.688975,0.690684,0.69337,0.694591,0.687266,0.60914,0.578134,0.552499,0.531014,0.521736,0.505135,0.491463,0.480964,0.471931,0.46656,0.453132,0.450446,0.448493,0.447272,0.445808,0.444831,0.443854,0.442634,0.443122,0.442145,0.492439,0.526131,0.556405,0.582773,0.613046,0.628916,0.642588,0.652354,0.662608,0.669932,0.675547,0.671397,0.677012,0.681407,0.685069,0.688243,0.691417,0.691417,0.693614,0.694102,0.684092,0.608896,0.57789,0.55201,0.530526,0.521248,0.504891,0.492195,0.481697,0.472908,0.466316,0.452644,0.449958,0.448493,0.446784,0.445808,0.444831,0.443854,0.443366,0.442878,0.445808,0.493416,0.524178,0.552987,0.580819,0.612558,0.62916,0.642588,0.653819,0.662364,0.6692,0.675059,0.671153,0.676524,0.681163,0.684825,0.688731,0.691417,0.691417,0.693614,0.695079,0.681651,0.60914,0.578378,0.55201,0.530526,0.521492,0.505379,0.492439,0.481209,0.473152,0.466072,0.452644,0.449958,0.448249,0.447272,0.446784,0.445075,0.443366,0.443366,0.442878,0.448249,0.498543,0.530282,0.558846,0.585214,0.614511,0.631113,0.644297,0.654551,0.66334,0.670176,0.675547,0.671885,0.677501,0.680919,0.684825,0.687755,0.69044,0.692149,0.693614,0.695079,0.677012,0.608896,0.57789,0.551766,0.530282,0.521492,0.505623,0.492195,0.482673,0.473152,0.465827,0.453132,0.451179,0.448737,0.447272,0.446052,0.445075,0.444099,0.443366,0.442878,0.451179,0.504891,0.536629,0.565194,0.589853,0.618906,0.634043,0.64625,0.656748,0.665293,0.671885,0.677501,0.67335,0.678477,0.682872,0.686046,0.688243,0.690929,0.692149,0.69337,0.695079,0.673594,0.608896,0.57789,0.55201,0.53077,0.51783,0.505867,0.492927,0.481453,0.473396,0.466316,0.452644,0.450202,0.447761,0.447272,0.446296,0.444831,0.444099,0.443366,0.443122,0.454597,0.509773,0.541024,0.570321,0.593515,0.622568,0.637217,0.649668,0.659922,0.666758,0.673106,0.678233,0.675547,0.679698,0.684581,0.68629,0.690196,0.691417,0.692638,0.694102,0.695079,0.669932,0.609384,0.578866,0.553231,0.533211,0.523201,0.506111,0.493416,0.481941,0.472908,0.46656,0.453132,0.45069,0.449226,0.447517,0.445563,0.444831,0.444099,0.443366,0.442634,0.456306,0.514412,0.546395,0.574472,0.598154,0.62623,0.639658,0.651621,0.660899,0.667979,0.674815,0.680186,0.674327,0.67921,0.68336,0.687266,0.688975,0.692149,0.693126,0.694835,0.695811,0.665049,0.609628,0.579355,0.553231,0.532235,0.522957,0.5066,0.493172,0.482429,0.47364,0.467048,0.448249,0.446784,0.446052,0.445075,0.446296,0.443366,0.442634,0.442145,0.443854,0.492439,0.525643,0.555673,0.582773,0.604013,0.629892,0.64332,0.654795,0.66334,0.670176,0.675547,0.671641,0.677256,0.680919,0.684092,0.687266,0.689464,0.691661,0.692882,0.695079,0.681895,0.60914,0.577401,0.55201,0.529305,0.520516,0.504891,0.491707,0.480476,0.472419,0.465583,0.461189,0.446296,0.447272,0.44654,0.445075,0.444099,0.443366,0.442878,0.442634,0.447272,0.493904,0.526375,0.556161,0.582528,0.604501,0.631357,0.644541,0.654307,0.663096,0.669444,0.675547,0.672129,0.677745,0.681895,0.685313,0.688731,0.690196,0.691905,0.69337,0.694835,0.675792,0.608896,0.57789,0.551766,0.53077,0.521004,0.504891,0.492195,0.481697,0.472663,0.466072,0.460945,0.450202,0.446296,0.446296,0.445075,0.444343,0.443854,0.443366,0.442878,0.448981,0.499763,0.532235,0.560067,0.586923,0.608896,0.634043,0.646494,0.656504,0.665049,0.671153,0.676768,0.673838,0.678233,0.681651,0.685557,0.687999,0.690684,0.692393,0.693614,0.694835,0.669932,0.608896,0.57789,0.551766,0.531502,0.522225,0.505867,0.492439,0.481697,0.473152,0.46656,0.460945,0.44947,0.448005,0.445808,0.445075,0.444099,0.44361,0.443122,0.443366,0.450446,0.504646,0.536629,0.565927,0.590829,0.611826,0.637949,0.647471,0.658213,0.666514,0.672618,0.677989,0.673838,0.678233,0.682628,0.685801,0.688243,0.690684,0.692882,0.694102,0.695323,0.665537,0.609628,0.578622,0.552743,0.531502,0.522225,0.506111,0.494148,0.481697,0.472663,0.467536,0.460945,0.448981,0.447517,0.445563,0.444831,0.444587,0.444343,0.443854,0.44239,0.452888,0.509041,0.542245,0.568368,0.593515,0.615,0.638926,0.648692,0.660166,0.667247,0.673594,0.678965,0.673838,0.67921,0.684092,0.686046,0.688731,0.691661,0.692882,0.694102,0.695323,0.662852,0.609873,0.578866,0.552499,0.531746,0.522225,0.506844,0.493416,0.482429,0.47364,0.467292,0.461921,0.449226,0.448005,0.44654,0.445075,0.444831,0.444831,0.443122,0.44239,0.456062,0.514168,0.545907,0.574716,0.597665,0.617929,0.641855,0.65211,0.662119,0.67042,0.675059,0.679942,0.675303,0.680919,0.683604,0.68751,0.689464,0.691661,0.692882,0.694102,0.695323,0.656992,0.610361,0.579599,0.553719,0.532479,0.523934,0.507088,0.49366,0.482673,0.473884,0.467048,0.460456,0.449226,0.447761,0.445808,0.445563,0.444831,0.444099,0.443366,0.442878,0.461433,0.521981,0.551278,0.580819,0.603769,0.622324,0.646006,0.656504,0.665049,0.672618,0.677745,0.681895,0.676524,0.681163,0.68336,0.687266,0.689708,0.691661,0.69337,0.694347,0.6963,0.644785,0.603281,0.574716,0.550057,0.529305,0.520272,0.504402,0.491218,0.478523,0.471931,0.466072,0.460945,0.448493,0.447272,0.446296,0.445319,0.445319,0.443854,0.443854,0.44239,0.465095,0.524666,0.555917,0.583261,0.605722,0.631601,0.645274,0.655772,0.664561,0.672374,0.677501,0.681651,0.677256,0.681651,0.685313,0.687755,0.691173,0.693126,0.694347,0.695323,0.6963,0.637461,0.601816,0.57203,0.546639,0.526864,0.51783,0.502937,0.490486,0.479988,0.470954,0.466072,0.460456,0.447028,0.447028,0.447272,0.444099,0.444343,0.443366,0.443122,0.442634,0.469001,0.524666,0.555917,0.582284,0.605478,0.630869,0.644785,0.656016,0.664317,0.670909,0.676524,0.681895,0.676768,0.681407,0.685313,0.687266,0.689708,0.691417,0.693614,0.694591,0.695811,0.63331,0.598398,0.567391,0.54493,0.525399,
0.517098,0.501961,0.489509,0.4795,0.471443,0.465095,0.45069,0.44947,0.447517,0.446784,0.445563,0.444587,0.44361,0.443854,0.443122,0.473152,0.525154,0.555917,0.582528,0.605234,0.631601,0.645029,0.654795,0.664561,0.670909,0.677012,0.680186,0.676036,0.681407,0.684092,0.687266,0.689464,0.691661,0.694102,0.6963,0.695811,0.627695,0.593759,0.565682,0.542,0.522469,0.514412,0.499519,0.487312,0.477546,0.470222,0.464607,0.451179,0.448737,0.447272,0.44654,0.446052,0.444587,0.443122,0.443854,0.44239,0.479011,0.523934,0.555184,0.58204,0.605722,0.631113,0.645029,0.655283,0.663828,0.670665,0.67628,0.681895,0.67628,0.680919,0.684092,0.688243,0.690196,0.692393,0.693614,0.694835,0.695811,0.621836,0.588876,0.56202,0.53785,0.520027,0.512703,0.498054,0.486091,0.476814,0.46949,0.46363,0.44947,0.448249,0.44654,0.446296,0.445075,0.444343,0.44361,0.442878,0.44239,0.483406,0.52369,0.554208,0.58204,0.604501,0.630869,0.644785,0.655283,0.662852,0.67042,0.675059,0.681895,0.676524,0.681895,0.684337,0.686778,0.68922,0.691173,0.693126,0.693126,0.689464,0.615244,0.583993,0.556893,0.53492,0.516854,0.510262,0.495613,0.48072,0.476326,0.465095,0.463386,0.450202,0.448005,0.44654,0.445563,0.444831,0.444831,0.444587,0.441901,0.442634,0.488289,0.524422,0.554696,0.58204,0.604257,0.630625,0.643565,0.655528,0.662852,0.670665,0.675303,0.679942,0.675792,0.68043,0.684092,0.686046,0.688731,0.692638,0.694102,0.694835,0.689708,0.61207,0.580819,0.55494,0.534188,0.515389,0.509529,0.494392,0.483162,0.474128,0.467536,0.461433,0.449226,0.447517,0.445075,0.445075,0.444099,0.443366,0.443122,0.442145,0.441901,0.490486,0.524422,0.553964,0.581308,0.604013,0.631601,0.643809,0.654795,0.66334,0.670176,0.676036,0.679942,0.67628,0.680674,0.684092,0.686778,0.68922,0.691417,0.693126,0.694347,0.685557,0.608652,0.579355,0.55201,0.531014,0.512947,0.506844,0.493416,0.482918,0.47364,0.467292,0.4607,0.448737,0.447272,0.44654,0.445075,0.444343,0.44361,0.442878,0.442634,0.441901,0.492195,0.525887,0.555917,0.582284,0.604746,0.630869,0.645029,0.654795,0.662119,0.671885,0.67628,0.680674,0.675792,0.680674,0.684337,0.686778,0.689464,0.691661,0.692149,0.695323,0.682628,0.606455,0.57789,0.55201,0.530282,0.512703,0.5066,0.493172,0.481941,0.473396,0.466804,0.461189,0.448737,0.447028,0.445808,0.445319,0.444587,0.44361,0.441901,0.44239,0.445563,0.493416,0.526375,0.556161,0.58204,0.604746,0.630381,0.643076,0.654551,0.662852,0.669444,0.675059,0.679454,0.676036,0.679454,0.684825,0.686046,0.689464,0.691905,0.693126,0.694591,0.680186,0.608652,0.578622,0.551034,0.53077,0.51368,0.5066,0.493172,0.482185,0.473396,0.46656,0.460945,0.447761,0.447272,0.444587,0.445319,0.444587,0.44361,0.443122,0.442634,0.448005,0.497078,0.529305,0.558602,0.584237,0.605966,0.632334,0.645029,0.655772,0.663096,0.670665,0.675792,0.681895,0.67628,0.678477,0.684581,0.68751,0.690196,0.691905,0.693614,0.694102,0.677012,0.609873,0.578378,0.552499,0.531258,0.513924,0.507332,0.493172,0.482429,0.47364,0.467292,0.461433,0.448981,0.447272,0.446296,0.446784,0.443854,0.444587,0.442634,0.44239,0.449958,0.501717,0.533944,0.562997,0.588388,0.610605,0.635019,0.648203,0.658213,0.665537,0.672129,0.677256,0.681651,0.676524,0.681163,0.685313,0.687266,0.689952,0.692149,0.69337,0.694835,0.672129,0.608896,0.577646,0.551522,0.531258,0.513436,0.507332,0.493416,0.482429,0.473884,0.467048,0.461189,0.449226,0.44654,0.445808,0.446296,0.444831,0.443854,0.443122,0.442634,0.452644,0.507576,0.539803,0.568368,0.592782,0.613046,0.637949,0.649912,0.659434,0.667735,0.673106,0.677989,0.682872,0.677256,0.682872,0.685313,0.687999,0.69044,0.692393,0.693614,0.695567,0.668956,0.610117,0.578134,0.552743,0.531502,0.513924,0.50782,0.494148,0.482429,0.474128,0.466316,0.461433,0.448981,0.447272,0.446784,0.445563,0.444587,0.442878,0.443366,0.443122,0.454597,0.51368,0.545907,0.573983,0.59791,0.617441,0.6421,0.65333,0.662364,0.669444,0.674083,0.679942,0.683848,0.677989,0.682628,0.685557,0.687755,0.691661,0.693614,0.693858,0.695567,0.663096,0.609873,0.578866,0.552987,0.531014,0.513191,0.508064,0.49366,0.483162,0.473884,0.467536,0.461921,0.449226,0.447517,0.44654,0.444343,0.444343,0.443854,0.443854,0.442634,0.459236,0.518807,0.551034,0.578622,0.602792,0.620615,0.644297,0.655283,0.663584,0.67042,0.676036,0.68043,0.684581,0.679454,0.682872,0.685313,0.688487,0.690684,0.692393,0.694102,0.695323,0.659434,0.609873,0.578134,0.552987,0.532235,0.522225,0.506844,0.493172,0.482429,0.47364,0.467048,0.4607,0.44947,0.448493,0.444099,0.445319,0.444587,0.44361,0.443366,0.441901,0.463142,0.524422,0.554696,0.582284,0.604746,0.623056,0.646494,0.656992,0.664073,0.672129,0.677745,0.681895,0.685557,0.679454,0.683604,0.686778,0.68922,0.69337,0.693126,0.695323,0.695323,0.650401,0.604501,0.576181,0.550546,0.530037,0.520272,0.504891,0.490974,0.481453,0.473396,0.46656,0.4607,0.448249,0.447272,0.446296,0.445319,0.445563,0.444343,0.442878,0.442878,0.467781,0.52491,0.556161,0.583261,0.606699,0.624033,0.646738,0.657481,0.666026,0.672618,0.677989,0.682139,0.677745,0.680674,0.685069,0.688731,0.691173,0.692149,0.693614,0.694347,0.695567,0.641367,0.603525,0.572519,0.548592,0.529305,0.518563,0.504158,0.490974,0.48072,0.472419,0.466072,0.460456,0.448249,0.447272,0.448249,0.442634,0.444587,0.443366,0.443122,0.44239,0.471931,0.525887,0.557137,0.580575,0.605722,0.624033,0.647715,0.657237,0.665782,0.671885,0.677256,0.681651,0.677256,0.680919,0.685069,0.687266,0.689708,0.692393,0.69337,0.694835,0.694347,0.634043,0.599374,0.569833,0.546151,0.525887,0.517098,0.502205,0.489509,0.479744,0.471931,0.464363,0.460212,0.447761,0.445563,0.445808,0.445075,0.444343,0.44361,0.44239,0.442634,0.476081,0.523934,0.555428,0.582284,0.604746,0.622324,0.646738,0.656992,0.665049,0.671885,0.677501,0.681895,0.677012,0.681407,0.684581,0.687755,0.689952,0.691905,0.694835,0.69337,0.695567,0.630137,0.596201,0.567636,0.543709,0.52369,0.515145,0.501472,0.489265,0.478767,0.471443,0.464851,0.459724,0.456794,0.447272,0.446052,0.445319,0.444587,0.444587,0.443366,0.442145,0.456306,0.513436,0.546151,0.574472,0.59791,0.617197,0.640635,0.65333,0.662364,0.668956,0.675059,0.680186,0.68336,0.677501,0.682872,0.684581,0.688487,0.691417,0.692638,0.693858,0.695567,0.652598,0.607675,0.576425,0.551034,0.530037,0.512215,0.5066,0.493172,0.482429,0.474128,0.467292,0.461433,0.448981,0.447517,0.446296,0.445808,0.444587,0.44361,0.443366,0.442634,0.459236,0.519051,0.551034,0.578622,0.601816,0.621103,0.644297,0.655528,0.663828,0.671885,0.676524,0.681895,0.685069,0.679454,0.68336,0.686534,0.68922,0.692149,0.693126,0.693858,0.695567,0.647715,0.605966,0.575448,0.550057,0.529305,0.511971,0.505867,0.492927,0.482429,0.473396,0.467536,0.461189,0.449226,0.447517,0.446052,0.445319,0.444587,0.444587,0.443366,0.443122,0.462898,0.522713,0.554696,0.58204,0.60499,0.623056,0.647715,0.656992,0.666514,0.672129,0.677012,0.681895,0.685313,0.679454,0.684092,0.686046,0.688731,0.692149,0.692882,0.693614,0.695567,0.639658,0.603525,0.573251,0.550057,0.528328,0.510994,0.505379,0.492439,0.481209,0.473152,0.46656,0.460945,0.448493,0.447272,0.446052,0.445319,0.444587,0.44361,0.442878,0.44239,0.466316,0.524666,0.556405,0.583261,0.606699,0.624033,0.646983,0.657481,0.665782,0.672862,0.677745,0.681895,0.684825,0.679454,0.682139,0.685557,0.69044,0.692149,0.69337,0.694347,0.696544,0.634531,0.599863,0.570321,0.546395,0.525643,0.509285,0.504158,0.492195,0.480964,0.471443,0.466316,0.4607,0.448737,0.447272,0.446052,0.445075,0.443854,0.44361,0.442878,0.441901,0.472419,0.524422,0.555184,0.582773,0.605234,0.623545,0.646494,0.657237,0.665293,0.671885,0.677501,0.681163,0.685313,0.67921,0.68336,0.686046,0.688975,0.691905,0.694102,0.694835,0.6963,0.626963,0.593759,0.565438,0.542,0.522469,0.505867,0.501961,0.489754,0.4795,0.471443,0.465095,0.459968,0.448493,0.446784,0.445808,0.445075,0.443366,0.44361,0.442878,0.44239,0.476081,0.523934,0.555428,0.582528,0.605478,0.623301,0.646738,0.656016,0.664805,0.672129,0.677501,0.679942,0.684581,0.679698,0.682872,0.68629,0.688731,0.690684,0.693858,0.694102,0.6963,0.622324,0.588632,0.561288,0.539071,0.520272,0.504402,0.500252,0.488289,0.478523,0.471199,0.464851,0.45948,0.44654,0.446052,0.445319,0.444831,0.444343,0.443122,0.442878,0.442145,0.479744,0.52369,0.55494,0.581308,0.603769,0.622568,0.645762,0.656504,0.665293,0.671153,0.676524,0.681895,0.684337,0.678721,0.682872,0.68629,0.688731,0.691905,0.692638,0.693858,0.692638,0.616709,0.585214,0.55787,0.536385,0.518074,0.502693,0.498543,0.48658,0.477302,0.46949,0.464607,0.458747,0.448981,0.446296,0.445319,0.444099,0.44361,0.442145,0.442634,0.442145,0.484382,0.52369,0.555184,0.581796,0.604501,0.622812,0.64625,0.656748,0.665537,0.671641,0.676768,0.681651,0.685069,0.679454,0.682383,0.686046,0.688975,0.690929,0.692638,0.694102,0.688975,0.613291,0.581796,0.555184,0.533211,0.516365,0.500984,0.498054,0.485603,0.476081,0.469001,0.463142,0.458747,0.447517,0.445563,0.445075,0.444099,0.443122,0.442634,0.44239,0.441901,0.489021,0.523934,0.55494,0.581796,0.604746,0.622568,0.645029,0.656504,0.665293,0.671641,0.677012,0.681163,0.684825,0.678965,0.682628,0.686046,0.688975,0.691173,0.695079,0.693614,0.685801,0.608408,0.577646,0.551522,0.53077,0.512215,
0.498299,0.494392,0.484382,0.474617,0.467536,0.461921,0.457282,0.445808,0.444831,0.444831,0.444587,0.443122,0.442145,0.44239,0.441901,0.490486,0.524666,0.555428,0.58204,0.60499,0.622568,0.64625,0.656992,0.664317,0.670909,0.675547,0.680186,0.684825,0.678965,0.683116,0.686046,0.687999,0.690684,0.692638,0.693858,0.68336,0.608164,0.577401,0.550057,0.529793,0.511971,0.498299,0.494392,0.482918,0.474128,0.466316,0.462654,0.458259,0.447272,0.445075,0.444343,0.44361,0.443122,0.44239,0.44239,0.441901,0.491707,0.52491,0.555673,0.582284,0.604746,0.622812,0.646006,0.656504,0.664561,0.671153,0.67628,0.680919,0.684092,0.678965,0.681895,0.685801,0.688487,0.690684,0.692638,0.694102,0.681651,0.608652,0.576913,0.551278,0.530037,0.513436,0.497322,0.494148,0.483406,0.474617,0.467536,0.461677,0.457038,0.445563,0.445319,0.444831,0.44361,0.443122,0.444343,0.442145,0.445808,0.492927,0.526375,0.556161,0.582528,0.604746,0.622324,0.646006,0.656016,0.664073,0.671885,0.676524,0.681163,0.684337,0.678965,0.682628,0.68629,0.688975,0.690929,0.692638,0.693614,0.677745,0.608896,0.576425,0.551278,0.530526,0.512215,0.498787,0.491463,0.481453,0.473396,0.46656,0.460945,0.456306,0.445319,0.444343,0.443122,0.443366,0.441901,0.442634,0.442145,0.447761,0.497322,0.530037,0.558846,0.584482,0.605966,0.622812,0.646983,0.656748,0.666026,0.671885,0.677256,0.681163,0.685069,0.678965,0.681895,0.687022,0.689464,0.691417,0.692882,0.694591,0.673106,0.608408,0.577401,0.550546,0.530282,0.512703,0.506111,0.49366,0.481941,0.47364,0.466804,0.4607,0.457038,0.444343,0.44361,0.444587,0.443854,0.443366,0.443122,0.441901,0.451423,0.50367,0.536629,0.564706,0.589609,0.610605,0.627695,0.650889,0.659434,0.667247,0.673106,0.678233,0.682139,0.677989,0.682383,0.684581,0.687266,0.690684,0.691661,0.69337,0.693614,0.668223,0.608408,0.577401,0.551766,0.530282,0.512947,0.507088,0.493416,0.482429,0.473884,0.467292,0.460945,0.456794,0.445808,0.444831,0.444343,0.44361,0.443122,0.443854,0.442634,0.453376,0.510506,0.541268,0.569833,0.594247,0.613535,0.631357,0.65333,0.662119,0.6692,0.674571,0.680674,0.683116,0.677256,0.681895,0.685557,0.688243,0.69044,0.691905,0.693858,0.694835,0.665537,0.610605,0.578622,0.553231,0.531991,0.51368,0.507576,0.494392,0.482429,0.474617,0.467781,0.461921,0.458015,0.445808,0.444587,0.444587,0.443854,0.442145,0.443122,0.44239,0.455573,0.513924,0.545663,0.573495,0.59791,0.617441,0.63331,0.655039,0.66334,0.669444,0.675792,0.68043,0.684337,0.678965,0.682628,0.686046,0.687999,0.692149,0.692393,0.692393,0.695079,0.662119,0.609873,0.57911,0.553231,0.531991,0.514412,0.508553,0.494392,0.484138,0.475105,0.467536,0.462654,0.457282,0.44654,0.44654,0.444831,0.444099,0.443854,0.442634,0.442878,0.4607,0.52076,0.552255,0.578866,0.602792,0.62208,0.637705,0.657969,0.666514,0.672374,0.677745,0.682139,0.685557,0.681651,0.683848,0.686046,0.689464,0.691417,0.692882,0.694591,0.695079,0.657481,0.610849,0.578622,0.554452,0.533211,0.5149,0.508064,0.494636,0.48365,0.473396,0.467781,0.462165,0.458503,0.445563,0.444343,0.444587,0.443854,0.442634,0.442878,0.441901,0.463874,0.524422,0.555917,0.583993,0.605478,0.624033,0.638926,0.659434,0.667247,0.672374,0.678477,0.681163,0.685557,0.68043,0.683848,0.68629,0.689708,0.691417,0.69337,0.694591,0.695567,0.647227,0.606699,0.575448,0.550546,0.530526,0.511971,0.506111,0.492683,0.482429,0.473884,0.467292,0.461189,0.457038,0.445808,0.445319,0.445075,0.444587,0.443366,0.442878,0.442145,0.467048,0.524422,0.555917,0.583017,0.605234,0.624521,0.638193,0.658457,0.667247,0.673106,0.678477,0.682139,0.686046,0.679942,0.683604,0.68629,0.68922,0.691661,0.69337,0.693858,0.695811,0.640391,0.604013,0.573251,0.548592,0.529061,0.51075,0.504402,0.491951,0.481453,0.473396,0.466804,0.461189,0.457038,0.445563,0.444587,0.443366,0.443854,0.443122,0.442634,0.440192,0.472908,0.521981,0.554452,0.582284,0.60499,0.623301,0.639414,0.659434,0.667002,0.672618,0.677989,0.680919,0.68629,0.680674,0.685069,0.687022,0.689464,0.691417,0.693126,0.694347,0.695079,0.634531,0.598398,0.569345,0.545663,0.525643,0.508797,0.503182,0.490974,0.48072,0.471687,0.465827,0.460456,0.456062,0.445075,0.444587,0.443854,0.443366,0.442878,0.442634,0.442145,0.478523,0.52369,0.555184,0.583505,0.604501,0.623056,0.637949,0.658457,0.66627,0.672862,0.67921,0.682139,0.685069,0.679942,0.683604,0.686778,0.68922,0.69044,0.693126,0.694591,0.695567,0.628183,0.594491,0.566171,0.542489,0.521736,0.506844,0.501961,0.486824,0.479744,0.471199,0.465095,0.4607,0.456062,0.444831,0.444343,0.443854,0.444587,0.442878,0.441657,0.441901,0.484627,0.52369,0.554696,0.581796,0.602792,0.622568,0.638193,0.65919,0.667002,0.67335,0.678233,0.682383,0.685801,0.679942,0.683604,0.686778,0.68922,0.691661,0.693614,0.694591,0.695811,0.622568,0.589609,0.561288,0.539315,0.521004,0.504646,0.500252,0.4878,0.478767,0.470954,0.464607,0.45948,0.45655,0.444587,0.442634,0.44361,0.442878,0.442878,0.442145,0.441657,0.487556,0.524666,0.556649,0.58204,0.604013,0.621347,0.637705,0.658946,0.667002,0.672374,0.677256,0.682872,0.685069,0.679454,0.681895,0.68629,0.688731,0.691173,0.692882,0.693858,0.691417,0.618662,0.585702,0.559091,0.536873,0.518074,0.502937,0.498787,0.48658,0.476326,0.469734,0.464607,0.458747,0.454841,0.444099,0.443854,0.443366,0.442878,0.442634,0.443366,0.441413,0.489021,0.524178,0.55494,0.581796,0.604013,0.622324,0.636973,0.657725,0.666026,0.671153,0.677012,0.681407,0.684825,0.678965,0.682628,0.686778,0.689464,0.692393,0.69337,0.694347,0.689952,0.612802,0.581308,0.555184,0.533455,0.515633,0.501228,0.497322,0.485603,0.476326,0.468025,0.462898,0.457038,0.455329,0.44361,0.44361,0.442878,0.442878,0.441413,0.441901,0.441901,0.490974,0.525399,0.555917,0.580819,0.605234,0.62208,0.638437,0.658946,0.666026,0.672374,0.677745,0.681895,0.685313,0.678965,0.682872,0.686534,0.688975,0.692149,0.692882,0.694347,0.687022,0.608896,0.577646,0.55201,0.531258,0.513924,0.499031,0.495369,0.48365,0.473884,0.467781,0.462654,0.457038,0.445319,0.444831,0.444343,0.44361,0.443122,0.44239,0.442634,0.473152,0.523201,0.555184,0.582284,0.604746,0.623301,0.637949,0.658946,0.667002,0.673838,0.679698,0.684092,0.687022,0.688731,0.682628,0.685801,0.688731,0.690929,0.693126,0.695567,0.6963,0.625742,0.592538,0.564706,0.541268,0.521981,0.506844,0.493172,0.490242,0.479988,0.471931,0.465339,0.460456,0.455818,0.444587,0.445075,0.44361,0.443366,0.442878,0.439704,0.442145,0.478035,0.523201,0.554696,0.581796,0.604501,0.623056,0.637949,0.658701,0.667002,0.672862,0.677989,0.682139,0.685557,0.687999,0.681651,0.685069,0.687999,0.690196,0.692882,0.691173,0.691661,0.620127,0.587655,0.561288,0.53785,0.519539,0.50367,0.490974,0.488045,0.478767,0.470954,0.464607,0.459236,0.454841,0.444831,0.443854,0.444587,0.442878,0.44239,0.442145,0.441657,0.484382,0.52369,0.55494,0.58204,0.603525,0.62208,0.637461,0.658213,0.66627,0.672862,0.677745,0.681651,0.685313,0.687755,0.681407,0.685069,0.688243,0.69044,0.692638,0.693614,0.689708,0.614267,0.582284,0.555917,0.535409,0.515877,0.501472,0.489509,0.487312,0.47779,0.470222,0.465095,0.458503,0.455329,0.444587,0.445319,0.44361,0.442878,0.442634,0.441901,0.442145,0.487556,0.52369,0.554696,0.581552,0.604501,0.622812,0.637705,0.658701,0.666514,0.672862,0.677989,0.682139,0.685557,0.68751,0.681895,0.685069,0.688243,0.69044,0.692393,0.695079,0.68751,0.609384,0.578378,0.552987,0.531746,0.514168,0.499519,0.495125,0.484138,0.475837,0.468513,0.462165,0.457038,0.454108,0.443854,0.443122,0.442878,0.442634,0.441413,0.441657,0.441657,0.489021,0.524178,0.555673,0.581796,0.603769,0.622324,0.637217,0.657725,0.66627,0.672129,0.677745,0.681651,0.685313,0.687022,0.681163,0.685801,0.687999,0.691417,0.692149,0.69337,0.684825,0.608408,0.577401,0.551278,0.530282,0.512703,0.499519,0.493904,0.482918,0.474617,0.466804,0.461677,0.457282,0.45362,0.443854,0.442878,0.442634,0.44239,0.442145,0.441657,0.441413,0.491707,0.525643,0.555428,0.581796,0.604257,0.623056,0.636973,0.655283,0.665782,0.672129,0.677745,0.681651,0.685069,0.679698,0.682872,0.687022,0.688731,0.692149,0.692638,0.694347,0.682628,0.608652,0.578134,0.551766,0.530526,0.511971,0.498054,0.494636,0.483162,0.474372,0.467781,0.461677,0.458503,0.45362,0.443854,0.442878,0.442878,0.439948,0.44239,0.44239,0.441413,0.492439,0.525887,0.556161,0.583505,0.60499,0.623056,0.637705,0.658457,0.666026,0.672129,0.677745,0.682383,0.685069,0.679942,0.683116,0.68629,0.688975,0.691173,0.692638,0.694102,0.678965,0.608896,0.577401,0.551522,0.530526,0.512459,0.497078,0.494392,0.483894,0.474617,0.467536,0.4607,0.457038,0.45362,0.442634,0.442634,0.441901,0.44239,0.442145,0.441657,0.445563,0.493904,0.526619,0.556161,0.582528,0.604746,0.622812,0.636973,0.657237,0.666026,0.672129,0.677256,0.681651,0.685557,0.678965,0.682383,0.686046,0.688487,0.690684,0.692638,0.695079,0.675303,0.60914,0.577401,0.551766,0.530526,0.512947,0.497078,0.494392,0.483406,0.474128,0.467781,0.461921,0.457282,0.45362,0.443366,0.442634,0.443122,0.442145,0.442145,0.441413,0.447272,0.49781,0.531014,0.55787,0.584726,0.60621,0.624521,0.638193,0.658701,0.666026,0.673106,0.677989,0.682139,0.685557,0.679698,0.683604,0.68629,0.68922,0.690684,0.692638,0.692149,0.671153,0.608164,0.577157,0.552743,0.530526,0.512947,0.49781,
0.000976577,0.000976577,0.000732433,0.000976577,0.000488289,0.000732433,0.000732433,0,0.60206,0.938491,0.938491,0.938003,0.937758,0.938003,0.937514,0.937758,0.937514,0.938003,0.937514,0.937758,0.938735,0.93727,0.937514,0.936782,0.936294,0.937026,0.937026,0.93727,0.939956,0.0021973,0.000732433,0.000732433,0.00122072,0.000976577,0.00122072,0.000488289,0.000976577,0.0021973,0.000976577,0.000976577,0.000732433,0.000976577,0.000976577,0.000488289,0.000732433,0.000976577,0.000244144,0.000488289,0,0.701183,0.937514,0.93727,0.93727,0.936782,0.93727,0.93727,0.936049,0.936294,0.936294,0.936782,0.936294,0.937026,0.937026,0.938003,0.939467,0.938247,0.939712,0.939467,0.938979,0.939956,0.00122072,0.000732433,0.000976577,0.000976577,0.000244144,0.000976577,0.000732433,0.000976577,0.000488289,0,0.000732433,0.000244144,0.000976577,0.000976577,0.000244144,0.000732433,0.000488289,0.000732433,0.000732433,0,0.793225,0.936049,0.936782,0.936538,0.937758,0.938735,0.938491,0.938247,0.939467,0.938979,0.939223,0.938491,0.938247,0.938491,0.938491,0.938247,0.938735,0.938247,0.93727,0.937514,0.941421,0.000732433,0.000976577,0.00122072,0.000976577,0.00122072,0.000488289,0.00122072,0.000976577,0.00122072,0.000976577,0.000488289,0.00146487,0.00122072,0.00122072,0.000976577,0.000488289,0.000732433,0.000244144,0.000244144,0,0.865492,0.939467,0.937758,0.938491,0.938735,0.937758,0.937514,0.937514,0.937026,0.93727,0.937758,0.937514,0.937514,0.93727,0.93727,0.93727,0.937026,0.93727,0.937026,0.936782,0.871107,0.00122072,0.000976577,0.00122072,0.000732433,0.000976577,0.000732433,0.00195315,0.000732433,0.00122072,0.000732433,0.00122072,0.000488289,0.000488289,0.000488289,0,0.000488289,0.000488289,0.000732433,0.000976577,0,0.935805,0.937026,0.937026,0.93727,0.93727,0.936049,0.937026,0.936538,0.937758,0.93727,0.937026,0.938003,0.939467,0.938491,0.938979,0.938735,0.939223,0.939467,0.939223,0.937758,0.812024,0.00146487,0.000244144,0.00146487,0.00122072,0.000976577,0.000732433,0,0.000732433,0.00122072,0.00122072,0.00146487,0.00122072,0.000976577,0,0.000732433,0.000244144,0.000976577,0.000732433,0.000488289,0,0.934829,0.93727,0.938491,0.938247,0.938735,0.938003,0.938247,0.938491,0.938491,0.937758,0.938003,0.938003,0.938491,0.939223,0.937026,0.938491,0.938003,0.937026,0.938247,0.93727,0.74757,0.00122072,0.0021973,0.00146487,0.00122072,0.000976577,0.000732433,0.000488289,0.000732433,0.00146487,0.000976577,0.000976577,0.00122072,0.000244144,0.000732433,0.000488289,0.000732433,0.000732433,0.000976577,0,0,0.936782,0.937758,0.938003,0.938491,0.937758,0.938247,0.93727,0.93727,0.93727,0.936049,0.937514,0.937026,0.937026,0.936782,0.936782,0.937026,0.936782,0.936538,0.93727,0.939467,0.712657,0.000976577,0.00122072,0.00122072,0.000976577,0.00122072,0.000976577,0.00146487,0.000732433,0.000732433,0.000244144,0.00122072,0.000488289,0.000732433,0.000732433,0.000488289,0.000976577,0.000488289,0.000732433,0.00146487,0.0686046,0.935805,0.937026,0.936294,0.937026,0.937514,0.936294,0.936294,0.936538,0.936782,0.93727,0.939712,0.938979,0.938735,0.938735,0.938735,0.939467,0.938735,0.938247,0.938247,0.938979,0.644541,0.00195315,0.00146487,0.000244144,0.000732433,0.00122072,0.00146487,0.00122072,0.000976577,0.000976577,0.00146487,0.000244144,0.000488289,0.000732433,0.00146487,0.000732433,0.000732433,0.000976577,0.000488289,0.000244144,0.134035,0.937026,0.938247,0.938247,0.939223,0.938247,0.937758,0.938003,0.937758,0.938491,0.939467,0.93727,0.937758,0.937758,0.939223,0.937758,0.940688,0.93727,0.937514,0.93727,0.938735,0.553475,0.00195315,0.000732433,0.000976577,0.000976577,0.00122072,0.000732433,0.000976577,0.000976577,0.00122072,0.000244144,0.000488289,0.000976577,0.000732433,0.000976577,0.000488289,0,0.000244144,0.00122072,0.000976577,0.195071,0.936294,0.93727,0.936782,0.937514,0.937026,0.937026,0.936782,0.936538,0.937026,0.936294,0.93727,0.937026,0.937026,0.936782,0.937758,0.936782,0.938003,0.939467,0.939956,0.941665,0.468269,0.00146487,0.000732433,0.000732433,0.000976577,0.00146487,0.000244144,0.000976577,0.000732433,0.000488289,0.00122072,0.000732433,0.000976577,0.00146487,0.000732433,0.000732433,0.000488289,0.000732433,0.000732433,0.000244144,0.226566,0.937026,0.936538,0.936294,0.936294,0.936538,0.935805,0.936782,0.939223,0.938491,0.938491,0.938735,0.938735,0.938735,0.938491,0.938979,0.938247,0.93727,0.938003,0.938247,0.940444,0.442145,0.00122072,0.000488289,0.000976577,0.00122072,0.000976577,0.000488289,0,0.000976577,0.000732433,0.000732433,0.00122072,0.000732433,0.000976577,0.00122072,0.000976577,0.000244144,0.000732433,0.000244144,0.000488289,0.281743,0.937758,0.938735,0.938247,0.938735,0.938003,0.938491,0.937758,0.937758,0.937758,0.938003,0.93727,0.937514,0.938247,0.937026,0.93727,0.938003,0.938247,0.937514,0.93727,0.939712,0.349126,0.0021973,0.00146487,0.00122072,0.00146487,0.00122072,0.000976577,0.000976577,0.000976577,0.00122072,0.000976577,0.00122072,0.000976577,0.000244144,0.000976577,0.000244144,0.000244144,0.000732433,0.000976577,0,0.362554,0.936294,0.936782,0.937514,0.937514,0.937026,0.93727,0.936538,0.937026,0.936782,0.936538,0.936049,0.936049,0.936294,0.937026,0.938247,0.939712,0.939223,0.938735,0.938979,0.940688,0.226078,0.00122072,0.000976577,0.000244144,0.000976577,0.000976577,0.000732433,0.000976577,0.000488289,0.00122072,0.000976577,0.00122072,0.000488289,0.000244144,0.000976577,0.000732433,0.000488289,0.000976577,0.000488289,0,0.45069,0.935073,0.937758,0.935561,0.936049,0.936782,0.938735,0.938491,0.939467,0.938979,0.938247,0.93727,0.939223,0.938003,0.938247,0.938735,0.938491,0.938735,0.938003,0.93727,0.940688,0.129397,0.000244144,0.000732433,0.00122072,0.00146487,0.00122072,0.00146487,0,0.000976577,0.000244144,0.000976577,0.000976577,0.00146487,0.00122072,0.000732433,0.000732433,0.000732433,0.000732433,0.000732433,0,0.498543,0.936538,0.938003,0.938735,0.938491,0.938491,0.937758,0.937514,0.93727,0.93727,0.937514,0.93727,0.938491,0.936782,0.938003,0.937026,0.936782,0.937026,0.936782,0.937026,0.939712,0.0458991,0.000488289,0.000732433,0.00122072,0.00122072,0.000976577,0.000732433,0.00122072,0.000488289,0.000732433,0.000244144,0.000976577,0.000244144,0.000488289,0.000488289,0.000488289,0.000732433,0.000732433,0.000732433,0,0.579843,0.937026,0.93727,0.93727,0.936782,0.937026,0.936782,0.936782,0.936782,0.93727,0.936294,0.936782,0.936294,0.937026,0.938247,0.938735,0.939223,0.938491,0.938735,0.939223,0.940444,0.00170901,0.00195315,0.000732433,0.0021973,0.000732433,0.000976577,0.000732433,0.000732433,0.000732433,0.00195315,0.00146487,0.000732433,0.000732433,0.000732433,0.000976577,0.00122072,0,0,0.000244144,0.248783,0.937026,0.937758,0.939223,0.93727,0.937758,0.93727,0.937026,0.936782,0.93727,0.936782,0.937514,0.936782,0.936538,0.936294,0.936782,0.938003,0.93727,0.937026,0.93727,0.940932,0.26807,0.00170901,0.00122072,0.000976577,0.000488289,0.000732433,0.00122072,0.000976577,0.000976577,0.000732433,0.000244144,0.000732433,0.000488289,0.000732433,0.000732433,0.000732433,0.000732433,0.000488289,0.000244144,0,0.317144,0.936294,0.936538,0.935805,0.936294,0.936049,0.937026,0.935805,0.937026,0.936294,0.938003,0.9402,0.938979,0.938247,0.939712,0.938491,0.938491,0.938491,0.938247,0.938491,0.939712,0.181399,0.000976577,0.000488289,0.000732433,0.00122072,0.000976577,0.000244144,0.000244144,0.00122072,0.000488289,0.000732433,0.000732433,0.000488289,0.000488289,0.000976577,0.000976577,0.000244144,0.000488289,0.000976577,0.000244144,0.393561,0.93727,0.938003,0.938491,0.938491,0.937758,0.938003,0.938003,0.938247,0.93727,0.938003,0.938003,0.938247,0.937026,0.93727,0.93727,0.937026,0.937514,0.938247,0.937758,0.939956,0.0817884,0.000732433,0.00146487,0.000976577,0.000488289,0.00122072,0.000976577,0.00122072,0.000976577,0.000732433,0.000732433,0.000244144,0.000732433,0.000732433,0.000976577,0.000488289,0.00146487,0.000488289,0,0,0.4607,0.936538,0.937514,0.937758,0.93727,0.938979,0.938491,0.937514,0.937026,0.937758,0.936538,0.936782,0.937026,0.93727,0.937026,0.937026,0.93727,0.936294,0.937758,0.938979,0.940688,0.00122072,0.00122072,0.00122072,0,0.00122072,0.000976577,0.000976577,0.000488289,0.000732433,0.00244144,0.00122072,0.000976577,0.00122072,0.000244144,0.000732433,0.000488289,0.000976577,0.000976577,0,0.000244144,0.567391,0.936782,0.936294,0.936294,0.935805,0.936294,0.936294,0.935317,0.936782,0.938979,0.939467,0.938491,0.938979,0.938491,0.938735,0.938491,0.938003,0.937758,0.938491,0.938491,0.9402,0.00146487,0.000732433,0.000732433,0.00122072,0.000976577,0.000732433,0.000732433,0.00146487,0.000976577,0.000732433,0.000732433,0.000976577,0.000976577,0.000732433,0,0.000488289,0,0.000732433,0.000976577,0,0.653819,0.938003,0.938491,0.938491,0.937514,0.938247,0.938979,0.937758,0.937514,0.938003,0.93727,0.938003,0.937026,0.937026,0.937758,0.938003,0.937514,0.93727,0.936782,0.937514,0.939223,0.00146487,0.000976577,0.000732433,0.000732433,0.000488289,0.00146487,0.00122072,0.000976577,0.00122072,0,0.000244144,0.000244144,0.000488289,0.00146487,0.000244144,0.000488289,0.000976577,0.000976577,0.000244144,0,0.786389,0.937026,0.937758,0.936782,0.937514,0.937026,0.937026,0.936782,0.936538,0.937026,0.936538,0.93727,0.936538,0.937026,0.93727,0.937026,0.93727,0.938735,0.938735,0.939223,0.876478,0.00195315,0.00146487,0.00122072,0.00122072,0.00122072,0.000488289,0.000244144,0.000488289,0.000488289,0.000976577,0.000976577,0.000976577,0.00122072,0.000488289,0.00244144,0,0.000732433,0.000732433,0.000732433,0,0.88014,0.937026,0.935805,0.936294,0.936049,0.93727,0.936538,0.938003,0.939712,0.938735,0.938491,0.938247,0.938247,0.938491,0.936782,0.939223,0.938491,0.938979,0.938003,0.938247,0.837903,0.00122072,0.000732433,0,0.00122072,0.000244144,0.00122072,0.000976577,0.000976577,0.00122072,0.000976577,0,0.000732433,0.000976577,0.000244144,0.000244144,0.000732433,0.000976577,0,0.00195315,0,0.936782,0.938247,0.939467,0.937758,0.938247,0.938247,0.938003,0.93727,0.937758,0.93727,0.938003,0.937758,0.937758,0.938247,0.938003,0.93727,0.937026,0.938491,0.937026,0.938735,0.789075,0.000488289,0.000244144,0.000976577,0.000488289,0.00122072,0.000244144,0.000976577,0.000732433,0.00122072,0.000244144,0.000732433,0.000244144,0.000976577,
0.93727,0.937026,0.936538,0.937026,0.936782,0.936782,0.93727,0.938491,0.941665,0.938979,0.938491,0.738293,0.00170901,0.000976577,0,0.000732433,0.00122072,0.000488289,0.000732433,0.000732433,0.00122072,0.000976577,0.000488289,0.000976577,0.00122072,0.000244144,0.000244144,0.00146487,0,0.000976577,0.000244144,0,0.935805,0.935805,0.936049,0.936782,0.935561,0.936782,0.938003,0.938247,0.938735,0.938491,0.938491,0.938735,0.938491,0.939467,0.939712,0.938247,0.938735,0.938491,0.938491,0.939223,0.673106,0.00146487,0.000976577,0.00146487,0.000244144,0.00122072,0.000976577,0.000976577,0.000732433,0.000976577,0.000488289,0.00146487,0.000732433,0,0.000976577,0.000244144,0.000732433,0.000976577,0.000976577,0.000488289,0.0798352,0.938003,0.93727,0.938003,0.937514,0.938247,0.937758,0.938003,0.93727,0.937758,0.93727,0.938003,0.937514,0.937514,0.93727,0.937026,0.937758,0.937514,0.937026,0.936782,0.939223,0.603525,0.0021973,0.000732433,0.000732433,0.000732433,0.000732433,0.000732433,0.000488289,0.000244144,0.000732433,0.000732433,0.000488289,0.000732433,0.000488289,0.000732433,0.000732433,0.000488289,0.000488289,0.000976577,0.000488289,0.134524,0.937514,0.937026,0.938247,0.936538,0.936294,0.938247,0.936538,0.936049,0.937026,0.936294,0.936782,0.935805,0.936294,0.937026,0.937758,0.938735,0.938979,0.939467,0.938979,0.9402,0.527108,0.00146487,0.000244144,0.000488289,0.000488289,0.000488289,0.00122072,0.000976577,0.00146487,0.000976577,0.000244144,0.000488289,0.000976577,0.000732433,0.000244144,0.000976577,0.000244144,0.00122072,0.000732433,0.000488289,0.186038,0.935805,0.937026,0.936782,0.936294,0.937514,0.938979,0.938735,0.938491,0.938247,0.938491,0.93727,0.937514,0.938003,0.938003,0.938491,0.937758,0.937758,0.93727,0.938247,0.939467,0.439704,0.00122072,0.000976577,0.000976577,0.00170901,0.000976577,0.000976577,0.000732433,0.000244144,0.00146487,0.00146487,0.00122072,0.000244144,0.000976577,0.000488289,0.000732433,0.000976577,0.000488289,0.00122072,0,0.267826,0.938247,0.938003,0.937758,0.938003,0.936782,0.938003,0.93727,0.93727,0.93727,0.937514,0.937026,0.93727,0.937758,0.937514,0.936782,0.936782,0.937026,0.938491,0.937514,0.939223,0.355474,0.000732433,0.00122072,0.000976577,0.00122072,0,0.000732433,0.000976577,0.0043946,0.000732433,0.000976577,0.000732433,0.000732433,0.000732433,0.000732433,0.00146487,0.000976577,0.00122072,0.000488289,0.000244144,0.340826,0.936049,0.937758,0.93727,0.938003,0.937026,0.93727,0.936538,0.936049,0.93727,0.936538,0.936049,0.935561,0.93727,0.938735,0.939223,0.938247,0.939467,0.938979,0.938247,0.941421,0.262943,0.000976577,0.000488289,0.00122072,0.000976577,0.00122072,0.000976577,0.00146487,0.000488289,0.000244144,0,0.00146487,0.000488289,0.00195315,0.000976577,0.000976577,0.000732433,0.000732433,0.000488289,0,0.400641,0.935073,0.936782,0.936782,0.93727,0.939467,0.938247,0.938247,0.938735,0.938491,0.939223,0.938247,0.937514,0.938003,0.937758,0.93727,0.937758,0.938003,0.93727,0.938247,0.939712,0.190921,0.000976577,0.00122072,0.000976577,0.000976577,0.000488289,0.000488289,0.00122072,0.000244144,0.00195315,0.000732433,0.000976577,0.000976577,0.000488289,0.000488289,0.00122072,0.000976577,0.000244144,0.00122072,0.000244144,0.471199,0.937026,0.937514,0.938003,0.937758,0.937514,0.936782,0.93727,0.93727,0.937514,0.936782,0.93727,0.93727,0.937026,0.936294,0.937514,0.936782,0.93727,0.937026,0.936782,0.939223,0.104982,0.00122072,0.00195315,0.000732433,0.00146487,0.00170901,0.000976577,0.000732433,0.000732433,0.00146487,0.000488289,0.000732433,0.000732433,0.000244144,0.000244144,0.000732433,0.000976577,0.000976577,0.000244144,0,0.56202,0.935805,0.936782,0.937026,0.93727,0.938247,0.935805,0.936538,0.936049,0.936782,0.937026,0.938003,0.939467,0.938735,0.938491,0.938735,0.938735,0.938491,0.938491,0.938247,0.939712,0.00195315,0.00122072,0.00122072,0.000976577,0.00122072,0.000732433,0.00122072,0.00146487,0.00122072,0.000976577,0.00122072,0.000732433,0.00122072,0.000732433,0.000732433,0.000732433,0.000732433,0.000976577,0.000488289,0.000244144,0.661143,0.936782,0.936782,0.938491,0.938735,0.938735,0.93727,0.939223,0.938003,0.938735,0.938247,0.938491,0.937514,0.937758,0.937758,0.93727,0.938003,0.93727,0.93727,0.938003,0.939223,0.00195315,0.00122072,0.000976577,0.000732433,0.000732433,0.000732433,0.00122072,0.000976577,0.000976577,0.000732433,0.00122072,0.000244144,0.000976577,0.000732433,0,0.00146487,0,0.000732433,0.000976577,0,0.728038,0.93727,0.938003,0.93727,0.938003,0.938247,0.937758,0.937758,0.937514,0.936782,0.937026,0.938247,0.938003,0.937514,0.937026,0.936538,0.936538,0.936782,0.937026,0.937514,0.939467,0.00146487,0.000976577,0.00366217,0.000732433,0.00146487,0.000976577,0.000732433,0.000732433,0.000976577,0.00244144,0,0.000732433,0.000244144,0.000976577,0.000732433,0.000244144,0.000488289,0.000488289,0.000244144,0,0.804944,0.937026,0.937026,0.936538,0.936782,0.936049,0.936049,0.936294,0.936782,0.936049,0.937514,0.938979,0.938979,0.938491,0.938979,0.938735,0.938491,0.938247,0.938979,0.937758,0.939956,0.00146487,0.00146487,0.000976577,0.000976577,0.000976577,0.000976577,0.000732433,0.00122072,0.000976577,0.00122072,0.000976577,0.000244144,0.000488289,0.000976577,0.000976577,0,0.000732433,0,0.000732433,0,0.924331,0.937514,0.938491,0.938735,0.938247,0.938979,0.938491,0.938491,0.938491,0.938247,0.938491,0.937514,0.938003,0.937758,0.937514,0.9402,0.937758,0.938003,0.938003,0.93727,0.818128,0.00122072,0.000244144,0.000488289,0.000732433,0.000732433,0.000244144,0.000976577,0.000488289,0.000976577,0.000976577,0.000976577,0.000244144,0.00170901,0.000244144,0.00146487,0.000732433,0.000732433,0.000976577,0.000488289,0,0.936294,0.93727,0.938247,0.937514,0.93727,0.93727,0.936782,0.93727,0.93727,0.936782,0.936782,0.938003,0.936782,0.937758,0.936782,0.936294,0.936782,0.936294,0.937026,0.93727,0.766125,0.00122072,0.00122072,0.000732433,0.000732433,0.00122072,0.000244144,0.000976577,0.000488289,0.000488289,0.000976577,0.000244144,0.000976577,0.000732433,0.000976577,0.000976577,0,0.000732433,0.000244144,0.000244144,0,0.936294,0.937026,0.937026,0.936782,0.936049,0.936049,0.937026,0.936538,0.93727,0.938003,0.938003,0.938735,0.938491,0.938491,0.938979,0.939956,0.938003,0.938491,0.938735,0.937758,0.725109,0.00122072,0.000732433,0.000732433,0.000488289,0.000244144,0.000244144,0.000976577,0.000976577,0.00122072,0.000244144,0.000976577,0.000732433,0.000244144,0,0.000732433,0.000732433,0.000488289,0.000732433,0.000488289,0.000244144,0.718273,0.937026,0.937026,0.93727,0.936538,0.936538,0.936538,0.936538,0.936782,0.93727,0.936538,0.936294,0.936538,0.938003,0.939712,0.939223,0.938491,0.939467,0.939223,0.938735,0.939956,0.000488289,0.00805676,0.00146487,0.000976577,0.00170901,0.000488289,0.000976577,0.000244144,0.000976577,0.000732433,0.00146487,0.000732433,0.000244144,0.000976577,0.000488289,0.00146487,0.000488289,0.000244144,0,0.000244144,0.819593,0.936049,0.936294,0.937026,0.938979,0.938247,0.938735,0.938735,0.938247,0.938735,0.939712,0.938491,0.93727,0.938003,0.938247,0.938247,0.938003,0.937758,0.938979,0.937758,0.842054,0.00146487,0.00122072,0.00146487,0.00122072,0.00146487,0.00122072,0.000976577,0.000732433,0.000976577,0.000244144,0.000732433,0.000732433,0.000488289,0.00122072,0.000244144,0,0.000732433,0.000732433,0.000732433,0,0.925307,0.937514,0.937758,0.937514,0.937514,0.93727,0.939223,0.936294,0.937026,0.937514,0.936782,0.938247,0.93727,0.937026,0.937026,0.936538,0.93727,0.936294,0.93727,0.936538,0.793957,0.00146487,0.000732433,0.00122072,0.000976577,0.000976577,0.000488289,0.000488289,0.000976577,0.000244144,0.000976577,0,0.000976577,0.000488289,0,0.00122072,0.00122072,0.000732433,0.000244144,0.000488289,0,0.936782,0.937514,0.93727,0.936538,0.936294,0.937026,0.936294,0.936782,0.936782,0.937026,0.936294,0.937514,0.938735,0.939223,0.938735,0.938979,0.938735,0.939467,0.939223,0.938735,0.741222,0.00146487,0.000976577,0.000976577,0.00170901,0.000732433,0.00122072,0.00146487,0.000732433,0.000732433,0.000976577,0.000976577,0.000244144,0,0.00122072,0.000488289,0.000976577,0.000488289,0.000488289,0.000732433,0.000244144,0.935073,0.934829,0.938003,0.938735,0.938979,0.938735,0.938979,0.939223,0.938247,0.938003,0.937514,0.93727,0.93727,0.93727,0.93727,0.938003,0.93727,0.93727,0.937758,0.938003,0.666026,0.00122072,0.000976577,0.000488289,0.000732433,0.000976577,0.000732433,0.000488289,0.00146487,0.00122072,0.00122072,0.00122072,0.000732433,0.000244144,0.000488289,0.00122072,0.000732433,0.00122072,0.000732433,0.000244144,0,0.937026,0.93727,0.938735,0.93727,0.93727,0.93727,0.93727,0.936782,0.937514,0.93727,0.93727,0.937758,0.937026,0.936782,0.936782,0.937026,0.937026,0.93727,0.937514,0.939712,0.620127,0.00195315,0.000976577,0.00122072,0.000732433,0.00146487,0.000976577,0.000732433,0.000732433,0.000976577,0.000976577,0.000244144,0,0.000976577,0.000488289,0.000732433,0.000244144,0.000976577,0.000732433,0,0.096437,0.937514,0.936782,0.936294,0.936538,0.936294,0.936294,0.936538,0.936538,0.93727,0.937514,0.938979,0.938735,0.938491,0.939223,0.938735,0.938735,0.938247,0.938491,0.939467,0.940444,0.558114,0.00170901,0.000976577,0.000488289,0.00122072,0.00146487,0.000488289,0.000732433,0.000976577,0.000976577,0.000732433,0.000732433,0.00195315,0.000732433,0.00122072,0,0.00146487,0.000488289,0.000732433,0.000244144,0.154788,0.937026,0.93727,0.938003,0.938247,0.937758,0.938247,0.938003,0.938247,0.937514,0.938003,0.93727,0.938491,0.937026,0.937026,0.938003,0.937026,0.936782,0.93727,0.93727,0.939956,0.487556,0.00195315,0.000488289,0.000244144,0.000976577,0.000732433,0.00146487,0.00122072,0.000976577,0.000732433,0.000488289,0.000732433,0,0.000976577,0.000976577,0.000244144,0.000976577,0.000488289,0.00122072,0,0.230228,0.936782,0.93727,0.938003,0.937758,0.936782,0.93727,0.937026,0.93727,0.937026,0.937026,0.937758,0.936782,0.936538,0.937026,0.936294,0.93727,0.936294,0.93727,0.938735,0.941665,0.386236,0.00146487,0.00146487,0.000488289,0.000244144,0.000976577,0.000976577,0.00146487,0.000976577,0.00268559,0.000976577,0.00122072,0.000976577,0.000732433,0.000488289,0.00122072,0.000732433,0.000976577,0.000732433,0,0.304204,0.936294,0.936538,0.936538,0.936782,0.936294,0.937026,0.935561,0.936782,0.937758,
0.792737,0.78883,0.790295,0.792248,0.792004,0.792737,0.585702,0.536385,0.502205,0.47779,0.458503,0.445075,0.434821,0.427497,0.42237,0.422126,0.418463,0.415778,0.413825,0.41236,0.411872,0.411383,0.407721,0.409186,0.40943,0.409918,0.508797,0.604746,0.657237,0.6963,0.724865,0.744884,0.758801,0.769787,0.776867,0.786389,0.78761,0.790051,0.791272,0.792004,0.79176,0.79176,0.788342,0.789807,0.790784,0.791272,0.792981,0.584237,0.535653,0.501717,0.476081,0.458015,0.444343,0.434577,0.427253,0.422126,0.42237,0.418708,0.416266,0.414069,0.412604,0.41236,0.411139,0.408453,0.40943,0.409918,0.410163,0.525399,0.60914,0.660655,0.698253,0.725597,0.746105,0.759777,0.769299,0.776867,0.785657,0.788098,0.789807,0.791028,0.791516,0.792004,0.792493,0.788098,0.789319,0.790784,0.791272,0.783459,0.58497,0.536385,0.501472,0.477058,0.458747,0.444831,0.434821,0.427497,0.422126,0.422126,0.418708,0.415778,0.414069,0.412848,0.412116,0.407477,0.408698,0.40943,0.409918,0.410407,0.548592,0.620371,0.6692,0.704356,0.730236,0.748791,0.761486,0.771008,0.778088,0.787121,0.789563,0.791028,0.792004,0.792248,0.792737,0.792981,0.789807,0.790784,0.791028,0.792737,0.776379,0.585214,0.536385,0.502205,0.477058,0.458991,0.445075,0.435065,0.427253,0.422614,0.42237,0.418952,0.416022,0.414069,0.413092,0.412604,0.408209,0.408942,0.40943,0.409918,0.410163,0.569589,0.634775,0.679942,0.712657,0.737316,0.753429,0.765148,0.774182,0.780041,0.788098,0.789807,0.791028,0.792004,0.792248,0.792737,0.792248,0.78883,0.790539,0.791272,0.79176,0.769055,0.585702,0.537362,0.503182,0.477546,0.458991,0.445563,0.435554,0.427985,0.42237,0.42237,0.418219,0.415778,0.413581,0.413092,0.412116,0.407965,0.408698,0.40943,0.410163,0.410651,0.579355,0.641855,0.685069,0.716564,0.739513,0.755871,0.766857,0.774914,0.781018,0.789075,0.790051,0.791028,0.792004,0.792493,0.792493,0.792493,0.78883,0.789563,0.791272,0.792004,0.766857,0.586923,0.538094,0.50367,0.478767,0.459724,0.445319,0.435554,0.428229,0.422614,0.422126,0.418708,0.415778,0.414069,0.413092,0.41236,0.408209,0.409674,0.410651,0.410163,0.420172,0.599374,0.655283,0.694591,0.7234,0.744396,0.758801,0.769299,0.777111,0.782483,0.791028,0.791516,0.792737,0.793713,0.792981,0.793469,0.793469,0.790051,0.791028,0.792004,0.792493,0.755627,0.58912,0.539315,0.504646,0.479255,0.460212,0.446296,0.43653,0.428717,0.423102,0.422126,0.418952,0.416022,0.414069,0.413336,0.412116,0.408453,0.409186,0.409674,0.410163,0.426276,0.612802,0.664317,0.701183,0.728771,0.748058,0.76173,0.77174,0.778576,0.783703,0.791028,0.792004,0.793225,0.793225,0.792981,0.793469,0.793469,0.790051,0.791028,0.792004,0.792004,0.737316,0.58204,0.534676,0.500984,0.476814,0.458259,0.445075,0.435065,0.427741,0.42237,0.423102,0.419196,0.416022,0.414069,0.413581,0.41236,0.408453,0.409186,0.409918,0.410163,0.433845,0.613779,0.665293,0.702403,0.729503,0.748547,0.76173,0.771496,0.77882,0.782971,0.790295,0.792493,0.792004,0.792737,0.792493,0.792493,0.792981,0.790051,0.791272,0.79176,0.792737,0.717784,0.577646,0.531502,0.498787,0.474617,0.456794,0.443122,0.4336,0.427253,0.42237,0.421881,0.418463,0.416022,0.414069,0.412848,0.41236,0.407477,0.408698,0.409918,0.410163,0.438483,0.613046,0.664317,0.701671,0.728038,0.747814,0.760998,0.771496,0.778332,0.783703,0.791028,0.792493,0.792737,0.793469,0.793957,0.793469,0.794446,0.791028,0.791028,0.792004,0.792248,0.700694,0.573495,0.528328,0.49659,0.473152,0.454353,0.443366,0.433845,0.427008,0.422126,0.421881,0.417975,0.41529,0.414069,0.413092,0.41236,0.408209,0.408942,0.40943,0.410163,0.44654,0.61207,0.66334,0.70045,0.728527,0.748058,0.76173,0.771984,0.77882,0.783459,0.790539,0.792248,0.792248,0.793225,0.793225,0.793469,0.793469,0.789319,0.791272,0.791028,0.792004,0.676524,0.566659,0.523934,0.492927,0.469978,0.453864,0.441901,0.432868,0.42652,0.421149,0.421149,0.417731,0.415045,0.414313,0.412848,0.412116,0.407965,0.408942,0.409674,0.40943,0.45655,0.610361,0.662364,0.699718,0.72755,0.746838,0.760998,0.77052,0.777844,0.782483,0.790295,0.791272,0.792004,0.792004,0.792981,0.792981,0.793469,0.790051,0.791028,0.792004,0.792737,0.643076,0.557137,0.517098,0.4878,0.467048,0.451179,0.438972,0.431403,0.424811,0.420661,0.420417,0.417243,0.415045,0.413336,0.413092,0.411627,0.407965,0.408698,0.408209,0.410407,0.465095,0.609873,0.661631,0.699718,0.727062,0.746593,0.760754,0.77052,0.777844,0.782971,0.790295,0.791516,0.792737,0.792981,0.793225,0.793469,0.793225,0.789807,0.791028,0.792004,0.792737,0.620371,0.549569,0.511482,0.483894,0.463386,0.448737,0.437507,0.429938,0.423835,0.419928,0.420172,0.416999,0.415045,0.412116,0.412848,0.412116,0.408209,0.408942,0.409674,0.409674,0.475837,0.608408,0.660899,0.698741,0.726574,0.746838,0.760754,0.771008,0.777844,0.782727,0.790784,0.79176,0.792493,0.792493,0.792981,0.792737,0.793225,0.789319,0.791028,0.791272,0.792493,0.594003,0.541756,0.505623,0.479744,0.4607,0.446296,0.435798,0.427985,0.422858,0.42237,0.418952,0.416266,0.414069,0.413581,0.41236,0.412116,0.407965,0.409186,0.409674,0.410407,0.482673,0.607675,0.660166,0.697765,0.725841,0.745129,0.760021,0.770031,0.776379,0.781994,0.789563,0.790539,0.791272,0.792004,0.792737,0.792737,0.793225,0.789563,0.790539,0.790295,0.792737,0.587655,0.537362,0.502693,0.477302,0.458991,0.445075,0.434821,0.427741,0.42237,0.422858,0.418708,0.416022,0.414069,0.41236,0.412116,0.411627,0.407477,0.408942,0.40943,0.409918,0.496101,0.60621,0.658701,0.696788,0.725109,0.745129,0.759045,0.769299,0.776867,0.781994,0.789807,0.791028,0.791516,0.792737,0.792737,0.792981,0.789563,0.790295,0.792248,0.792004,0.792248,0.585214,0.536141,0.501961,0.476814,0.458259,0.444587,0.434821,0.427008,0.421881,0.421881,0.418708,0.415778,0.413825,0.412604,0.412116,0.411627,0.408209,0.409186,0.409918,0.449714,0.610605,0.662364,0.700206,0.727306,0.746349,0.760998,0.77052,0.777356,0.782727,0.786389,0.792248,0.792981,0.793469,0.793225,0.793713,0.792248,0.790051,0.791272,0.792248,0.792737,0.636973,0.555184,0.515633,0.487312,0.466072,0.450202,0.439216,0.430915,0.425299,0.420417,0.421393,0.417487,0.41529,0.413336,0.41236,0.412116,0.411627,0.407965,0.408942,0.40943,0.460945,0.609628,0.661387,0.699229,0.727062,0.747326,0.760998,0.771008,0.778088,0.783215,0.790051,0.792004,0.793225,0.793469,0.792737,0.792981,0.792737,0.789075,0.790539,0.791516,0.792981,0.603769,0.545418,0.508064,0.481697,0.461189,0.447517,0.437263,0.429206,0.423102,0.418952,0.41944,0.416754,0.414313,0.413336,0.412116,0.411872,0.411383,0.407965,0.408942,0.40943,0.475105,0.607919,0.66041,0.698497,0.725841,0.746105,0.760266,0.769787,0.777356,0.782483,0.789807,0.791028,0.791516,0.792248,0.792248,0.792004,0.792981,0.788586,0.789807,0.791028,0.792248,0.588876,0.538094,0.503426,0.47779,0.459236,0.445319,0.434821,0.427741,0.42237,0.418708,0.419684,0.416266,0.413825,0.413092,0.41236,0.411383,0.407721,0.408698,0.409918,0.409674,0.481941,0.607919,0.659922,0.697765,0.725597,0.745617,0.759289,0.769543,0.777356,0.782238,0.789563,0.791272,0.792737,0.792737,0.792737,0.792981,0.793225,0.789319,0.791272,0.792248,0.792737,0.587167,0.537118,0.502693,0.477058,0.458747,0.444831,0.434821,0.427253,0.421637,0.417975,0.419196,0.416266,0.414069,0.413336,0.41236,0.411383,0.407721,0.408698,0.409674,0.409918,0.490486,0.607431,0.659678,0.698009,0.725353,0.745617,0.759777,0.769543,0.7776,0.782727,0.790539,0.791516,0.792248,0.793469,0.792737,0.792737,0.792737,0.789075,0.790051,0.791516,0.792493,0.585702,0.536385,0.502205,0.477058,0.457527,0.444831,0.434821,0.427008,0.422126,0.418952,0.419928,0.41651,0.415045,0.413092,0.41236,0.411872,0.407477,0.408698,0.40943,0.409918,0.505379,0.605722,0.658946,0.696544,0.72462,0.745617,0.759533,0.769299,0.776867,0.782727,0.789807,0.791028,0.791516,0.792004,0.792248,0.792004,0.792248,0.788342,0.791028,0.790295,0.792248,0.583261,0.535164,0.500984,0.476081,0.458259,0.444099,0.434333,0.427253,0.421881,0.418708,0.418952,0.416266,0.414313,0.413336,0.412116,0.411872,0.407965,0.408453,0.409186,0.409918,0.527596,0.609384,0.661143,0.698497,0.725841,0.745373,0.759045,0.769787,0.776867,0.781506,0.78883,0.790784,0.792248,0.792493,0.792737,0.792737,0.793713,0.789319,0.790784,0.791272,0.780529,0.584482,0.535897,0.501961,0.477302,0.458747,0.445075,0.434821,0.427253,0.42237,0.419196,0.41944,0.41651,0.414069,0.413336,0.41236,0.411872,0.407965,0.408942,0.409186,0.409918,0.547616,0.620127,0.668711,0.704356,0.73048,0.749279,0.762219,0.770764,0.777844,0.782971,0.791028,0.791516,0.792248,0.792737,0.792248,0.792248,0.792004,0.789075,0.791028,0.791272,0.776135,0.584237,0.535897,0.501961,0.477058,0.458259,0.445075,0.434821,0.427741,0.422126,0.418952,0.419196,0.416266,0.414557,0.413092,0.412604,0.411383,0.407721,0.408698,0.40943,0.409918,0.566415,0.633066,0.678477,0.711681,0.736339,0.752697,0.765393,0.773938,0.779553,0.784192,0.790784,0.79176,0.793469,0.792737,0.792004,0.792737,0.792737,0.789319,0.790539,0.791516,0.768811,0.586191,0.537362,0.502937,0.477546,0.459236,0.445563,0.435554,0.427741,0.422858,0.419196,0.41944,0.416999,0.414557,0.413825,0.412604,0.411872,0.408209,0.409186,0.40943,0.409918,0.583749,0.645029,0.687022,0.718029,0.740246,0.755627,0.767102,0.774914,0.781262,0.785168,0.792737,0.792248,0.793225,0.792981,0.793469,0.793469,
0.416754,0.414557,0.413581,0.412604,0.411872,0.407721,0.408942,0.40943,0.420172,0.599374,0.655528,0.695567,0.724376,0.745617,0.759289,0.769543,0.777111,0.782727,0.786389,0.792493,0.793469,0.793469,0.793469,0.793225,0.793957,0.793469,0.789563,0.790784,0.792248,0.752697,0.588632,0.539559,0.505135,0.479988,0.460456,0.446296,0.436286,0.428717,0.423102,0.41944,0.419928,0.41651,0.414801,0.413336,0.41236,0.412116,0.408209,0.409186,0.409918,0.426764,0.614023,0.665049,0.702647,0.728527,0.748058,0.761486,0.77174,0.778576,0.783459,0.786633,0.792981,0.793225,0.793957,0.793469,0.793469,0.793225,0.792981,0.790051,0.791516,0.79176,0.732677,0.581064,0.5337,0.50074,0.476326,0.458259,0.444587,0.434577,0.427253,0.42237,0.418708,0.419928,0.41651,0.414801,0.413581,0.412604,0.412116,0.408209,0.409186,0.40943,0.432136,0.613291,0.664561,0.701915,0.728771,0.748058,0.761486,0.771252,0.777844,0.783215,0.787121,0.792981,0.793713,0.794202,0.793469,0.793713,0.793469,0.794202,0.790295,0.791272,0.792004,0.710704,0.576181,0.530282,0.49781,0.473152,0.45655,0.443366,0.434089,0.427008,0.422126,0.418463,0.41944,0.416266,0.414313,0.413336,0.412604,0.412116,0.407721,0.408209,0.409918,0.438727,0.612802,0.664073,0.701671,0.728771,0.748058,0.761975,0.771252,0.77882,0.784192,0.787121,0.793469,0.793713,0.793469,0.793469,0.794446,0.793469,0.793469,0.790295,0.790051,0.792004,0.689464,0.570321,0.525887,0.494636,0.471931,0.454353,0.44239,0.433356,0.426276,0.421637,0.417975,0.419196,0.416022,0.414557,0.413092,0.41236,0.411383,0.407721,0.408942,0.409674,0.445075,0.611582,0.663584,0.701183,0.728038,0.747814,0.761486,0.771496,0.779065,0.783459,0.786877,0.792737,0.792981,0.793469,0.793469,0.793713,0.793225,0.792981,0.789563,0.791028,0.792493,0.667247,0.564218,0.521981,0.491707,0.469734,0.453132,0.441169,0.43238,0.425788,0.421393,0.421393,0.417975,0.415534,0.414069,0.412848,0.412116,0.411872,0.407965,0.409186,0.40943,0.457771,0.609873,0.662119,0.699962,0.72755,0.747082,0.76051,0.770764,0.7776,0.782727,0.787121,0.793469,0.793957,0.793957,0.793957,0.794202,0.793713,0.794446,0.790295,0.791272,0.792004,0.647471,0.55787,0.51783,0.488533,0.467048,0.450935,0.43946,0.430915,0.425055,0.420661,0.420417,0.417731,0.41529,0.413825,0.412848,0.412116,0.411383,0.407477,0.408942,0.40943,0.462898,0.609628,0.661631,0.699718,0.727062,0.746838,0.760998,0.771008,0.778088,0.783215,0.786633,0.792737,0.792981,0.793469,0.793225,0.793225,0.792737,0.78883,0.790051,0.791272,0.792004,0.619883,0.549813,0.511482,0.484138,0.46363,0.448249,0.438483,0.430182,0.424079,0.420172,0.420417,0.417243,0.415045,0.413581,0.41236,0.411872,0.412116,0.407477,0.408942,0.409674,0.473396,0.608652,0.660655,0.698741,0.726085,0.746105,0.760021,0.770275,0.776867,0.782238,0.785901,0.792493,0.792493,0.792493,0.792737,0.792981,0.792493,0.78883,0.790051,0.792004,0.792248,0.594491,0.541512,0.506111,0.479988,0.460212,0.446296,0.435798,0.428229,0.422858,0.418952,0.419928,0.416754,0.414313,0.413581,0.412116,0.412116,0.411383,0.407477,0.408698,0.40943,0.48365,0.607431,0.659434,0.696544,0.725841,0.745373,0.760021,0.769543,0.776623,0.78175,0.785657,0.792493,0.793469,0.792493,0.793469,0.793469,0.793225,0.789319,0.790539,0.792004,0.792248,0.587167,0.537118,0.502937,0.477546,0.458991,0.445075,0.435065,0.427253,0.422614,0.418708,0.41944,0.41651,0.414313,0.413092,0.411383,0.411872,0.411383,0.407233,0.408942,0.40943,0.495125,0.606455,0.657481,0.69752,0.725597,0.745373,0.759533,0.769787,0.778332,0.782971,0.785657,0.792004,0.792981,0.792737,0.792493,0.792493,0.792981,0.78883,0.790295,0.791028,0.791272,0.58497,0.535653,0.501717,0.476814,0.458259,0.444587,0.434821,0.42652,0.422126,0.418219,0.419928,0.41651,0.414313,0.413336,0.412604,0.411383,0.410895,0.407477,0.408209,0.40943,0.502937,0.605966,0.658457,0.696544,0.724132,0.743664,0.759289,0.769299,0.776379,0.781506,0.785168,0.791516,0.792493,0.792737,0.792493,0.792493,0.792248,0.78883,0.789563,0.791272,0.792248,0.583993,0.535409,0.501472,0.47657,0.458503,0.444587,0.434821,0.427253,0.422126,0.418952,0.41944,0.416022,0.414069,0.413092,0.411627,0.411872,0.411383,0.407965,0.408698,0.40943,0.513924,0.605478,0.656992,0.695811,0.723888,0.744152,0.758556,0.768811,0.776379,0.781262,0.785657,0.791272,0.792493,0.792981,0.792981,0.793469,0.793225,0.789319,0.790539,0.791272,0.780774,0.584482,0.536141,0.501961,0.477302,0.458747,0.445075,0.434821,0.427497,0.42237,0.417731,0.419196,0.416754,0.414313,0.412848,0.41236,0.412116,0.411139,0.408209,0.408942,0.40943,0.541268,0.61622,0.666026,0.701671,0.728771,0.746593,0.760998,0.771008,0.7776,0.782483,0.786389,0.791516,0.792493,0.792248,0.792493,0.792248,0.792737,0.789075,0.790051,0.791028,0.771252,0.584726,0.536385,0.501961,0.477546,0.458991,0.445563,0.435309,0.427985,0.422858,0.418952,0.419928,0.417243,0.414557,0.413336,0.412604,0.412116,0.411383,0.407965,0.408698,0.40943,0.552499,0.623545,0.671153,0.706065,0.731701,0.749523,0.762219,0.771496,0.778332,0.783703,0.786633,0.792248,0.792493,0.792493,0.792981,0.792493,0.792737,0.789075,0.790539,0.791516,0.767346,0.585946,0.537606,0.503182,0.47779,0.45948,0.445563,0.435554,0.427985,0.422614,0.419196,0.419928,0.417243,0.414557,0.413581,0.41236,0.411872,0.411383,0.408209,0.408942,0.409674,0.5691,0.634775,0.679454,0.712413,0.736095,0.752941,0.764904,0.773449,0.780041,0.784436,0.788098,0.793225,0.793713,0.793713,0.793469,0.793469,0.793713,0.790051,0.790784,0.791516,0.758068,0.587655,0.538827,0.504158,0.478767,0.459968,0.445808,0.436042,0.428473,0.423102,0.419196,0.419928,0.416999,0.414801,0.413336,0.412848,0.412116,0.407477,0.408698,0.40943,0.500496,0.606699,0.658946,0.6963,0.724865,0.745617,0.759045,0.769543,0.776867,0.78175,0.785657,0.792004,0.792493,0.792493,0.792737,0.792493,0.792737,0.792493,0.789563,0.791272,0.790784,0.584237,0.535653,0.500984,0.476814,0.458259,0.444831,0.434821,0.427253,0.422126,0.418463,0.415778,0.416999,0.414313,0.413581,0.412848,0.412116,0.411872,0.407965,0.408698,0.408942,0.51075,0.605478,0.657481,0.695567,0.723888,0.744884,0.758312,0.768811,0.776379,0.781994,0.785168,0.792493,0.792493,0.793957,0.793225,0.793713,0.793225,0.793713,0.789075,0.791028,0.783703,0.585214,0.536141,0.501961,0.476814,0.458503,0.444831,0.435065,0.427741,0.42237,0.418708,0.416022,0.417243,0.415045,0.413581,0.412604,0.412116,0.411383,0.407477,0.408698,0.40943,0.534432,0.61207,0.662608,0.699474,0.727062,0.746593,0.760266,0.770031,0.777111,0.781994,0.785901,0.792248,0.792737,0.792737,0.792737,0.792248,0.792493,0.792737,0.789075,0.790051,0.776623,0.584482,0.535653,0.501717,0.477058,0.458259,0.444587,0.434821,0.427497,0.422126,0.418463,0.416022,0.417243,0.415045,0.414069,0.41236,0.412116,0.411627,0.407965,0.408698,0.409918,0.558358,0.627451,0.674327,0.708751,0.733654,0.751476,0.763684,0.773205,0.779309,0.783703,0.786877,0.792737,0.793225,0.792981,0.792737,0.792737,0.792737,0.792737,0.789075,0.791028,0.771008,0.585214,0.536385,0.502449,0.477546,0.458503,0.444831,0.435309,0.427985,0.42237,0.418952,0.416266,0.417243,0.415045,0.414069,0.413092,0.412116,0.411627,0.407965,0.408942,0.40943,0.577157,0.640146,0.68336,0.715343,0.737804,0.755138,0.76466,0.774426,0.781018,0.78468,0.787854,0.792737,0.794446,0.793957,0.793469,0.793469,0.793469,0.793225,0.790051,0.791028,0.764172,0.586435,0.538338,0.503182,0.478523,0.45948,0.445563,0.435309,0.427985,0.422858,0.418708,0.416266,0.418219,0.41529,0.414069,0.413092,0.41236,0.411872,0.407721,0.408942,0.416999,0.590097,0.64918,0.690684,0.721202,0.742443,0.757824,0.768811,0.776867,0.781994,0.785901,0.78883,0.794446,0.793713,0.793713,0.792981,0.792981,0.792981,0.792737,0.789319,0.790784,0.757336,0.5879,0.538827,0.503914,0.478767,0.460212,0.446052,0.435798,0.427985,0.423102,0.418708,0.416266,0.417487,0.414801,0.413825,0.413092,0.412116,0.411383,0.407721,0.408942,0.423102,0.60621,0.659678,0.698741,0.726574,0.746349,0.760998,0.770764,0.778088,0.784192,0.787366,0.78883,0.794934,0.794202,0.794202,0.793469,0.793225,0.793469,0.794446,0.790295,0.792737,0.735851,0.581552,0.534188,0.500984,0.47657,0.458503,0.445319,0.435309,0.428229,0.422614,0.418952,0.419928,0.416999,0.415045,0.413092,0.413092,0.412116,0.411383,0.407721,0.409186,0.430915,0.613046,0.664317,0.701427,0.728283,0.748302,0.761486,0.771252,0.778088,0.783703,0.787121,0.789563,0.794934,0.794934,0.793713,0.793957,0.793713,0.792248,0.793225,0.789563,0.791028,0.720226,0.578134,0.531014,0.498299,0.473884,0.456794,0.44361,0.434089,0.427008,0.421881,0.418708,0.419196,0.416754,0.414069,0.413336,0.41236,0.41236,0.411383,0.407477,0.408698,0.436774,0.611826,0.663584,0.701427,0.728527,0.748302,0.761486,0.771984,0.77882,0.783703,0.787121,0.790051,0.794446,0.794934,0.794446,0.793713,0.793469,0.793225,0.789319,0.790295,0.790784,0.70631,0.574472,0.529793,0.496834,0.473152,0.455818,0.442878,0.433845,0.427008,0.422126,0.418463,0.419928,0.416999,0.414801,0.413825,0.412604,0.411872,0.411383,0.407477,0.408942,0.44361,0.611826,0.66334,0.700694,0.728283,0.74757,0.761242,0.771008,0.778332,0.783703,0.786633,0.789075,0.79469,0.794446,0.793713,0.793225,0.793225,0.793225,0.790051,0.791028,0.792248,0.687266,0.569833,0.525643,0.494392,0.471443,0.453376,0.44239,0.433112,0.426276,0.421637,0.417975,0.419196,0.41651,
0.437751,0.438727,0.47657,0.521736,0.553475,0.581308,0.603525,0.621836,0.636973,0.649424,0.658946,0.666758,0.672374,0.679454,0.691173,0.692638,0.693614,0.694591,0.695567,0.696544,0.687022,0.689464,0.692882,0.624765,0.591318,0.563973,0.541024,0.52076,0.504891,0.491951,0.481209,0.473396,0.46656,0.461189,0.465095,0.459968,0.455573,0.453376,0.449714,0.448249,0.44654,0.437507,0.438483,0.482185,0.521248,0.551766,0.580087,0.604501,0.622324,0.636973,0.650401,0.659922,0.667247,0.673594,0.686534,0.689952,0.69044,0.693614,0.693614,0.694102,0.695567,0.68751,0.689464,0.689708,0.618906,0.588144,0.559823,0.537362,0.518807,0.503426,0.490486,0.480476,0.472419,0.466072,0.461433,0.465339,0.45948,0.455085,0.452399,0.449714,0.448005,0.446296,0.437018,0.437263,0.484627,0.517342,0.552987,0.579355,0.60206,0.621592,0.636973,0.649668,0.658946,0.666758,0.672862,0.685313,0.690929,0.691417,0.692638,0.694102,0.694591,0.695567,0.686778,0.690196,0.687755,0.614267,0.583505,0.556405,0.534432,0.516609,0.501717,0.489265,0.481209,0.470954,0.464851,0.459968,0.463874,0.458991,0.455573,0.452399,0.449226,0.447517,0.438239,0.439704,0.439704,0.487556,0.523201,0.553231,0.580331,0.602792,0.621347,0.63624,0.647959,0.65919,0.666514,0.672862,0.686778,0.68922,0.691173,0.692393,0.693614,0.694591,0.695079,0.68751,0.68922,0.685313,0.607431,0.576669,0.551522,0.530526,0.512459,0.498543,0.487556,0.47657,0.469978,0.46363,0.458747,0.462898,0.458015,0.454353,0.451911,0.449226,0.447272,0.437995,0.438483,0.439216,0.489021,0.52369,0.553964,0.579843,0.603525,0.621836,0.636973,0.648936,0.658946,0.667002,0.673594,0.686778,0.689708,0.690196,0.691417,0.695079,0.694591,0.695567,0.687022,0.689708,0.681895,0.605478,0.575937,0.550546,0.529305,0.511971,0.497566,0.485847,0.476814,0.469245,0.464607,0.459236,0.464363,0.458259,0.454597,0.451667,0.44947,0.447517,0.437507,0.438483,0.439948,0.490486,0.523934,0.554452,0.581064,0.603525,0.621592,0.636484,0.648692,0.656992,0.666026,0.67335,0.687022,0.688975,0.690684,0.692149,0.693614,0.694591,0.695323,0.687755,0.690196,0.679942,0.606455,0.575692,0.550301,0.529549,0.511971,0.497566,0.485603,0.476326,0.46949,0.463142,0.458503,0.462654,0.458015,0.455573,0.450935,0.448737,0.447028,0.437751,0.438727,0.443854,0.493416,0.526131,0.555917,0.582284,0.604257,0.622324,0.636973,0.648447,0.65919,0.667247,0.67335,0.687022,0.689708,0.690684,0.691173,0.695079,0.693614,0.695567,0.687755,0.69044,0.675547,0.606699,0.575448,0.550057,0.530526,0.511971,0.497566,0.486091,0.47657,0.469245,0.464118,0.458503,0.462898,0.458259,0.454597,0.451667,0.44947,0.447517,0.437995,0.438483,0.445075,0.496345,0.52784,0.557626,0.583993,0.605478,0.623545,0.637949,0.649912,0.65919,0.667247,0.673838,0.68751,0.689708,0.691173,0.692149,0.69337,0.694347,0.695567,0.686778,0.689952,0.673106,0.605478,0.575448,0.550057,0.529061,0.511482,0.49781,0.485359,0.475837,0.469245,0.46363,0.45948,0.463142,0.458259,0.454597,0.451667,0.449226,0.447517,0.437751,0.438727,0.445808,0.500252,0.533211,0.562753,0.5879,0.609384,0.626474,0.640879,0.652842,0.661631,0.668956,0.674815,0.687999,0.690684,0.691661,0.694347,0.693614,0.695079,0.694347,0.687999,0.69044,0.667735,0.606455,0.575692,0.550546,0.530282,0.512947,0.496834,0.485603,0.476814,0.46949,0.463874,0.458747,0.463142,0.458015,0.452644,0.452399,0.447517,0.447272,0.437751,0.438727,0.450935,0.50782,0.541024,0.569589,0.592294,0.613779,0.630137,0.643809,0.654551,0.66334,0.669932,0.676036,0.689464,0.691661,0.692882,0.694102,0.694835,0.695811,0.696544,0.688731,0.691173,0.662852,0.607675,0.577157,0.550057,0.530526,0.512947,0.498299,0.486336,0.477058,0.470222,0.463874,0.45948,0.463386,0.458503,0.454841,0.452155,0.44947,0.447517,0.436774,0.438483,0.453376,0.513191,0.545663,0.573983,0.597665,0.617441,0.633555,0.645762,0.656504,0.665537,0.672129,0.677745,0.688975,0.692638,0.693858,0.694835,0.695567,0.696544,0.698253,0.68922,0.691661,0.657481,0.607675,0.578134,0.551766,0.531014,0.513924,0.499519,0.48658,0.475105,0.469978,0.464118,0.458991,0.463386,0.458747,0.454108,0.452155,0.449226,0.447028,0.438483,0.43946,0.456306,0.516854,0.550057,0.576181,0.600351,0.620371,0.634775,0.647471,0.657969,0.666026,0.672618,0.678233,0.691173,0.692638,0.694347,0.694591,0.696056,0.6963,0.697276,0.688731,0.691173,0.654551,0.608896,0.57789,0.552499,0.530526,0.513436,0.499031,0.486824,0.47779,0.470222,0.464607,0.458991,0.462654,0.458747,0.454841,0.451911,0.44947,0.447517,0.438239,0.438727,0.459236,0.519783,0.552255,0.579599,0.603525,0.621836,0.637217,0.649424,0.659434,0.666514,0.674327,0.679698,0.692638,0.693614,0.694347,0.694835,0.695811,0.696544,0.698741,0.690196,0.69044,0.638926,0.601816,0.572274,0.548104,0.527596,0.51075,0.495369,0.481697,0.476326,0.469245,0.463386,0.459236,0.462898,0.458259,0.454597,0.451423,0.449226,0.448981,0.437751,0.438483,0.464118,0.522225,0.554452,0.581796,0.604746,0.623056,0.63917,0.647715,0.661143,0.667735,0.674083,0.678965,0.691905,0.69337,0.693126,0.695567,0.697032,0.696544,0.697032,0.688487,0.691661,0.632822,0.598398,0.570077,0.54493,0.525887,0.508553,0.494636,0.48365,0.474861,0.467781,0.462654,0.457771,0.462409,0.457527,0.454597,0.451911,0.44947,0.447272,0.437995,0.438727,0.467781,0.521736,0.554208,0.580819,0.603281,0.622324,0.637217,0.649668,0.659434,0.667247,0.674327,0.678233,0.691173,0.692882,0.693858,0.694835,0.695567,0.6963,0.697032,0.688731,0.691417,0.629648,0.59498,0.567391,0.544198,0.523934,0.507576,0.494148,0.483162,0.475837,0.468513,0.461677,0.464607,0.460212,0.456062,0.453132,0.450446,0.448493,0.448737,0.447028,0.436042,0.44947,0.505867,0.539559,0.568612,0.593271,0.613535,0.629404,0.643809,0.655039,0.664317,0.67042,0.67628,0.680919,0.69337,0.694102,0.694591,0.695567,0.695079,0.6963,0.688731,0.690929,0.65919,0.607431,0.576669,0.551522,0.530526,0.511971,0.498543,0.48658,0.477058,0.469978,0.463874,0.458991,0.463386,0.458259,0.455085,0.452155,0.450446,0.447761,0.446296,0.437263,0.452155,0.511482,0.543221,0.572274,0.597421,0.616953,0.632822,0.646006,0.656748,0.665049,0.671885,0.677745,0.682139,0.694347,0.691661,0.696788,0.697276,0.697032,0.69752,0.688487,0.691661,0.656504,0.607675,0.577646,0.552499,0.531502,0.514168,0.499275,0.487556,0.477546,0.471687,0.464607,0.458991,0.464118,0.459236,0.455573,0.452399,0.448981,0.447761,0.446784,0.437263,0.456794,0.51783,0.550546,0.578622,0.601572,0.620859,0.636728,0.648936,0.658701,0.667002,0.672618,0.677745,0.683604,0.694591,0.695323,0.695811,0.696544,0.697276,0.698985,0.68922,0.69044,0.646006,0.603769,0.573251,0.548836,0.528573,0.511727,0.498054,0.486091,0.476814,0.46949,0.463874,0.458991,0.463386,0.458747,0.455085,0.451667,0.44947,0.447517,0.446296,0.437263,0.461189,0.521248,0.553719,0.581308,0.604013,0.62208,0.637949,0.651865,0.661387,0.667247,0.674083,0.677256,0.691417,0.69337,0.694347,0.695079,0.696788,0.697032,0.697276,0.688975,0.691661,0.638193,0.601328,0.572274,0.54786,0.527352,0.511238,0.493416,0.485847,0.475837,0.469001,0.463142,0.458015,0.461921,0.458747,0.454841,0.451667,0.44947,0.447517,0.445563,0.437263,0.466316,0.520516,0.552743,0.580331,0.603525,0.621347,0.636973,0.649424,0.65919,0.667735,0.673838,0.678965,0.69044,0.6963,0.694102,0.694835,0.695567,0.696544,0.697032,0.688243,0.691417,0.63331,0.59913,0.5691,0.544198,0.525154,0.508797,0.495125,0.48365,0.474861,0.468269,0.462165,0.457282,0.461189,0.457527,0.454353,0.451423,0.449226,0.447028,0.436774,0.438483,0.470466,0.521492,0.553719,0.581064,0.603769,0.622324,0.637705,0.649424,0.659434,0.667979,0.673838,0.678965,0.691173,0.693126,0.695567,0.695323,0.696056,0.696544,0.695323,0.68922,0.691661,0.627695,0.594003,0.565438,0.542733,0.522713,0.507332,0.49366,0.481453,0.474372,0.467292,0.461677,0.457282,0.462165,0.458503,0.453376,0.451667,0.448981,0.447272,0.437751,0.438727,0.476814,0.522225,0.553964,0.580575,0.604013,0.622568,0.637705,0.649912,0.659678,0.667247,0.673838,0.678965,0.691661,0.69337,0.694835,0.694835,0.6963,0.696544,0.697032,0.688487,0.691417,0.62208,0.590097,0.562264,0.539803,0.52076,0.504891,0.492195,0.481453,0.473152,0.466316,0.4607,0.455818,0.459968,0.457282,0.453864,0.451179,0.448737,0.44654,0.437507,0.439216,0.480964,0.521736,0.553231,0.580331,0.603281,0.621592,0.637217,0.648936,0.658946,0.667979,0.673106,0.678233,0.691173,0.692638,0.693858,0.694347,0.695567,0.696544,0.697032,0.688731,0.68922,0.618906,0.586191,0.559335,0.537118,0.518807,0.504158,0.49073,0.4795,0.472175,0.466072,0.460456,0.456062,0.461189,0.457038,0.453132,0.45069,0.449226,0.446784,0.437507,0.438483,0.485359,0.521492,0.552987,0.580331,0.603281,0.621836,0.63624,0.648936,0.659434,0.666514,0.67335,0.67921,0.690929,0.692638,0.692638,0.694347,0.696056,0.696056,0.6963,0.688731,0.684581,0.60914,0.579355,0.552987,0.532479,0.5149,0.500008,0.488289,0.478523,0.470954,0.464607,0.460212,0.455573,0.461189,0.457771,0.453376,0.451179,0.448737,0.446784,0.436774,0.437263,0.488045,0.521981,0.553475,0.580087,0.603281,0.621347,0.636484,0.648692,0.658457,0.66627,0.672129,0.677989,0.690929,0.692149,0.69337,0.694102,0.695079,0.695811,0.696788,0.689708,0.68336,0.60621,0.575448,0.550057,0.529549,0.511971,0.497566,0.486336,0.47657,0.46949,0.462654,0.458747,0.453376,0.460212,0.456062,0.452888,0.449958,0.447761,0.44654,
0.000976577,0.000488289,0.000732433,0.000976577,0.00122072,0.000976577,0.00146487,0.00122072,0.000488289,0.000732433,0.000488289,0.00122072,0,0.174075,0.936049,0.93727,0.937758,0.938491,0.936294,0.936782,0.936538,0.936782,0.936294,0.937514,0.937026,0.936049,0.937758,0.936538,0.936049,0.936049,0.936294,0.936782,0.937514,0.939956,0.350835,0.000976577,0.000732433,0.00122072,0.000976577,0.000732433,0.00170901,0,0.000488289,0.000732433,0.00122072,0.000244144,0.000976577,0.000488289,0.000244144,0.000244144,0.000244144,0.000976577,0,0.000244144,0.237552,0.935805,0.935561,0.936049,0.936294,0.936782,0.936538,0.936049,0.935805,0.936294,0.936294,0.938491,0.938247,0.938491,0.938247,0.938735,0.938247,0.938979,0.938247,0.938491,0.9402,0.266361,0.000732433,0.00122072,0.00146487,0.000976577,0.00122072,0.00122072,0.000488289,0.00122072,0.000976577,0.000732433,0.00122072,0.000732433,0,0.000732433,0.00146487,0.000244144,0.00195315,0.000488289,0,0.310307,0.934829,0.938491,0.938979,0.937758,0.938735,0.937758,0.938003,0.938003,0.937758,0.937758,0.938735,0.938003,0.936782,0.93727,0.937758,0.937026,0.938003,0.937026,0.938003,0.940444,0.162844,0.00122072,0.000244144,0.00122072,0.000732433,0.00122072,0.000976577,0.00122072,0.000732433,0.000732433,0.000976577,0.00170901,0.000488289,0.000976577,0.000488289,0.000732433,0.000732433,0.000976577,0,0.000244144,0.396979,0.93727,0.937758,0.93727,0.93727,0.93727,0.936538,0.938979,0.93727,0.936782,0.937514,0.937026,0.937026,0.93727,0.936294,0.93727,0.936538,0.93727,0.936049,0.936049,0.939467,0.0610361,0,0.000732433,0.000976577,0.000244144,0.00146487,0.00195315,0.00146487,0.00122072,0.000976577,0.00122072,0.000732433,0.000732433,0.000732433,0.000244144,0.000488289,0.00122072,0.00195315,0.000732433,0,0.471443,0.936049,0.936782,0.937514,0.936538,0.936782,0.936294,0.936538,0.936538,0.936538,0.936294,0.936538,0.93727,0.938003,0.939956,0.939223,0.938491,0.938491,0.938247,0.938491,0.939956,0.00195315,0.000732433,0.00122072,0.000732433,0.000244144,0.000732433,0.000976577,0.000732433,0.000732433,0.000732433,0.000976577,0.00122072,0,0.000488289,0.000976577,0.000244144,0.000488289,0.000732433,0.000244144,0,0.573983,0.936538,0.936049,0.937026,0.937758,0.938247,0.938491,0.938247,0.938491,0.938003,0.939223,0.938247,0.937758,0.938247,0.938247,0.938003,0.938247,0.93727,0.93727,0.939467,0.939712,0.00146487,0.000976577,0.00195315,0.000976577,0.000976577,0.000488289,0.000488289,0.00268559,0.00292973,0.000976577,0.00146487,0.00122072,0.000976577,0.000732433,0.000488289,0.000976577,0.000732433,0.000976577,0.00146487,0.000244144,0.667247,0.938003,0.937758,0.938003,0.937514,0.937514,0.938003,0.937758,0.938003,0.937758,0.93727,0.937026,0.936782,0.93727,0.93727,0.937514,0.938491,0.937026,0.938003,0.937026,0.939223,0.00146487,0.00122072,0.000732433,0.00122072,0.000732433,0.00122072,0.00122072,0.000732433,0.000732433,0.000976577,0.000976577,0.000488289,0.000488289,0.00122072,0.000976577,0.000488289,0.00122072,0.00122072,0.000488289,0,0.790539,0.937026,0.936782,0.938247,0.936538,0.937758,0.936782,0.937026,0.936294,0.936782,0.936294,0.936782,0.936049,0.937758,0.936782,0.938979,0.939467,0.938735,0.938247,0.938979,0.939712,0.00170901,0.00146487,0.0021973,0.000976577,0,0.00146487,0.000732433,0.000976577,0.000488289,0.000732433,0.000488289,0.00122072,0,0.000732433,0.000732433,0.000732433,0.000976577,0.000732433,0.000732433,0.0021973,0.887709,0.937026,0.936538,0.936538,0.936049,0.936049,0.93727,0.938491,0.938003,0.939956,0.940932,0.938735,0.938247,0.938491,0.938003,0.938735,0.93727,0.93727,0.93727,0.939223,0.939467,0.00122072,0.000976577,0.000976577,0.000732433,0.000244144,0.000976577,0.000976577,0.000976577,0.000732433,0.000976577,0.000976577,0,0.000732433,0,0.000244144,0.000488289,0.000732433,0.000244144,0.000732433,0,0.936538,0.938003,0.938003,0.938247,0.938003,0.937758,0.93727,0.938247,0.938247,0.938247,0.936782,0.937758,0.937514,0.93727,0.93727,0.937026,0.936782,0.93727,0.936782,0.937026,0.835218,0.000732433,0.00146487,0.00122072,0.000976577,0.000244144,0.00122072,0.00122072,0.000976577,0.000732433,0.000976577,0.000976577,0.000488289,0.000488289,0.000976577,0.00122072,0.000976577,0.000732433,0.000976577,0.000732433,0,0.935561,0.93727,0.936294,0.936782,0.937026,0.937026,0.937758,0.937026,0.936294,0.937026,0.936782,0.936782,0.936538,0.936538,0.936782,0.93727,0.934829,0.938491,0.938491,0.938491,0.76466,0.00170901,0.00146487,0.00122072,0.000976577,0.0021973,0.000732433,0.000976577,0.000976577,0.00146487,0.000488289,0.000244144,0.000488289,0.00122072,0.000732433,0.000244144,0.000976577,0.000244144,0.000976577,0,0,0.935073,0.936049,0.936049,0.936782,0.936294,0.936049,0.936782,0.937026,0.938491,0.939956,0.938735,0.941176,0.938247,0.938979,0.937758,0.938003,0.938247,0.938003,0.937758,0.938003,0.686046,0.00195315,0.000976577,0.000244144,0.000976577,0,0.000732433,0.000732433,0.000732433,0.000976577,0.000976577,0.000244144,0.00146487,0.000488289,0.000732433,0.000732433,0.000244144,0.000488289,0.000244144,0.000732433,0.00146487,0.937514,0.938979,0.938735,0.938247,0.938247,0.938247,0.93727,0.939223,0.937514,0.938491,0.936782,0.937514,0.93727,0.938491,0.93727,0.93727,0.93727,0.937026,0.937026,0.937758,0.620615,0.00146487,0.000732433,0.000976577,0.000976577,0.00146487,0.00122072,0.000976577,0,0.000488289,0.000976577,0.000976577,0.000488289,0.00122072,0.000244144,0.000976577,0.000488289,0.0021973,0.000732433,0.000488289,0.0715343,0.936049,0.937026,0.937758,0.936538,0.937514,0.93727,0.937026,0.936782,0.93727,0.937514,0.937514,0.936782,0.937026,0.936782,0.937026,0.936782,0.936782,0.936782,0.93727,0.939467,0.563241,0.00146487,0.00195315,0.000488289,0.000732433,0.000488289,0.000732433,0.00122072,0.000976577,0.000732433,0.000732433,0.000976577,0.000732433,0.000732433,0.000732433,0.000976577,0.000488289,0,0.000732433,0.00122072,0.128664,0.936538,0.936538,0.936294,0.936294,0.935805,0.935561,0.936294,0.936294,0.936782,0.938247,0.939223,0.938491,0.938979,0.938247,0.938491,0.938979,0.938003,0.938735,0.938735,0.938735,0.453376,0.00122072,0.000976577,0.00122072,0.00122072,0.00146487,0.000732433,0.000732433,0.000244144,0.000976577,0.000976577,0.000976577,0.00146487,0.000732433,0.000244144,0.000488289,0.000488289,0.000976577,0.00122072,0,0.184329,0.936782,0.939223,0.937758,0.938735,0.938003,0.938491,0.938003,0.93727,0.936538,0.937758,0.938491,0.937758,0.937758,0.93727,0.93727,0.937514,0.937514,0.937026,0.933364,0.939223,0.375982,0.000732433,0.00146487,0.000976577,0.000732433,0.000244144,0.000488289,0,0.000244144,0.00122072,0.000976577,0.000732433,0.000976577,0.000488289,0.000488289,0.000732433,0.000732433,0.00122072,0.000488289,0,0.254154,0.937026,0.93727,0.937026,0.00170901,0.000244144,0.0043946,0.000976577,0.00146487,0.00122072,0.00292973,0.000732433,0.00122072,0,0.000732433,0,0.00146487,0.00122072,0.000488289,0,0.935805,0.93727,0.938003,0.937758,0.937758,0.936782,0.935805,0.936782,0.938003,0.937026,0.937026,0.936782,0.936538,0.937026,0.936538,0.936782,0.937026,0.937514,0.936782,0.937514,0.699229,0.00170901,0.00122072,0.00292973,0.00122072,0.000488289,0.00146487,0.00122072,0.000488289,0.00122072,0.000976577,0.000976577,0.000488289,0.000732433,0.00122072,0,0.000732433,0.000488289,0.00146487,0.000488289,0,0.936538,0.937026,0.936538,0.936538,0.936538,0.936294,0.935805,0.936538,0.936294,0.936294,0.937514,0.935805,0.938979,0.938735,0.937758,0.938979,0.938003,0.939223,0.938491,0.938003,0.636973,0.00146487,0.00122072,0,0.000976577,0.000488289,0.000976577,0.00146487,0.000976577,0.000732433,0.00146487,0.00122072,0.000488289,0.000976577,0,0.000732433,0.000488289,0.000976577,0,0.000732433,0,0.935073,0.935805,0.935805,0.936782,0.938491,0.938247,0.938979,0.939712,0.938491,0.938003,0.938247,0.939223,0.937514,0.938735,0.937514,0.937514,0.93727,0.93727,0.937514,0.938979,0.558602,0.00195315,0.000976577,0.000732433,0.000732433,0.000488289,0.000244144,0.000976577,0.000244144,0.000976577,0,0.000976577,0.000244144,0.000976577,0.000732433,0,0.000244144,0.000488289,0.000732433,0.000244144,0.103761,0.937758,0.93727,0.937758,0.938247,0.938247,0.93727,0.93727,0.93727,0.937514,0.937514,0.938247,0.937758,0.937026,0.936782,0.93727,0.93727,0.937026,0.937026,0.936782,0.939467,0.4878,0.000976577,0.000488289,0,0.000732433,0.00122072,0,0.00146487,0.00122072,0.000488289,0.000976577,0.000976577,0.000976577,0.000488289,0.000732433,0.00122072,0.000976577,0.000976577,0.000488289,0.000244144,0.159915,0.935805,0.936538,0.93727,0.936294,0.936782,0.936538,0.93727,0.93727,0.936538,0.936538,0.938003,0.936049,0.936294,0.936538,0.936538,0.938003,0.9402,0.938491,0.938247,0.941421,0.391852,0.00122072,0.000976577,0.000976577,0,0.00146487,0.000244144,0.00122072,0.000488289,0.000732433,0.000976577,0.000976577,0.000488289,0.000244144,0.000244144,0.00122072,0.000976577,0.000244144,0.000976577,0,0.23389,0.934585,0.936049,0.936049,0.935805,0.935561,0.937026,0.936294,0.93727,0.938247,0.938735,0.938735,0.939223,0.938735,0.939223,0.938735,0.938003,0.937758,0.938979,0.937758,0.940444,0.27808,0.00122072,0.00146487,0.00122072,0.000976577,0.000976577,0.000976577,0.000732433,0.00122072,0.000732433,0.000732433,0.000732433,0.000976577,0.00195315,0.000732433,0.000732433,0.000732433,0.000488289,0.000488289,0.000488289,0.314458,0.937758,0.938491,0.938491,0.938247,0.938735,0.938247,0.938979,0.938735,0.93727,0.938003,0.93727,0.93727,0.937026,0.937026,0.93727,0.93727,0.938003,0.937758,0.937026,0.939956,0.196048,0.00122072,0.00146487,0.00146487,0.000976577,0.00170901,0.000976577,0.000244144,0.000488289,0.000976577,0.00146487,0.00122072,0.00146487,0.00195315,0.000976577,0.000244144,0.000732433,0.000732433,0.000976577,0.000244144,0.381109,0.936782,0.938247,0.938491,0.937026,0.93727,0.936782,0.937514,0.938491,0.937026,0.937758,0.937026,0.93727,0.936782,0.936782,0.937026,0.936294,0.93727,0.936782,0.938003,0.939956,0.123049,0.000976577,0.000732433,0.00146487,0.000732433,0.000488289,0.000732433,0.00146487,0.000732433,0.0021973,0.000732433,0.000488289,0.000488289,0.00122072,0.000732433,0.000732433,0.000488289,0.000732433,0.000732433,0,0.441169,0.936538,0.936538,0.936538,0.936782,0.936538,0.936782,0.936782,0.935805,
0.447272,0.445808,0.445075,0.444099,0.451179,0.45655,0.51075,0.540291,0.568124,0.592294,0.613291,0.620859,0.636484,0.648447,0.658701,0.666758,0.67335,0.678477,0.682628,0.685557,0.688243,0.689708,0.692393,0.693126,0.693858,0.704845,0.677745,0.615732,0.582528,0.555673,0.5337,0.507088,0.493904,0.482185,0.474617,0.467781,0.460945,0.457527,0.454108,0.451423,0.44947,0.448493,0.44654,0.444831,0.444343,0.451667,0.458503,0.513924,0.545174,0.572274,0.595712,0.615732,0.623301,0.638437,0.650645,0.659434,0.667247,0.673594,0.680186,0.683116,0.685069,0.688731,0.690684,0.692638,0.693614,0.695079,0.704601,0.670176,0.614511,0.583017,0.556649,0.533944,0.508309,0.494392,0.483406,0.474617,0.467781,0.461921,0.458015,0.454597,0.450935,0.448493,0.448005,0.44654,0.445075,0.444343,0.451667,0.462165,0.52076,0.55079,0.578378,0.601572,0.620371,0.625498,0.641611,0.653086,0.66334,0.670909,0.675059,0.680186,0.682872,0.68629,0.687266,0.691417,0.692393,0.693614,0.694591,0.705333,0.666026,0.615732,0.583505,0.556405,0.534432,0.508797,0.496345,0.483162,0.475105,0.468025,0.462409,0.458015,0.454597,0.451667,0.448493,0.448005,0.446296,0.445319,0.442878,0.451179,0.464851,0.525887,0.556649,0.583017,0.60499,0.623789,0.629648,0.643076,0.654307,0.663096,0.67042,0.67628,0.681651,0.684581,0.687999,0.689708,0.692149,0.693614,0.694591,0.695567,0.706065,0.66041,0.617197,0.584726,0.55787,0.535409,0.509773,0.494636,0.484382,0.476081,0.468025,0.462654,0.457771,0.454597,0.45069,0.450202,0.449226,0.447272,0.446052,0.444831,0.451667,0.470466,0.530526,0.561532,0.587411,0.608896,0.626719,0.629648,0.646494,0.656748,0.665293,0.672129,0.677745,0.682383,0.685801,0.687755,0.690196,0.692393,0.693614,0.694835,0.695567,0.705333,0.650645,0.611582,0.580331,0.554208,0.532479,0.507576,0.49366,0.482918,0.474372,0.467536,0.460456,0.457282,0.454353,0.451423,0.448493,0.447517,0.44654,0.445319,0.444587,0.451911,0.474128,0.53077,0.561044,0.586923,0.608408,0.627207,0.631357,0.645762,0.656748,0.666514,0.668956,0.677745,0.682139,0.685557,0.685313,0.690929,0.691661,0.69337,0.695079,0.692393,0.705577,0.646006,0.608408,0.577157,0.551766,0.531014,0.505135,0.492195,0.48072,0.472419,0.46656,0.461189,0.456306,0.453132,0.45069,0.449226,0.447517,0.446296,0.445319,0.447028,0.451667,0.478523,0.530037,0.5608,0.586191,0.607431,0.625498,0.631357,0.645762,0.655283,0.663828,0.670909,0.677501,0.681163,0.685801,0.687266,0.689464,0.690684,0.693126,0.694347,0.695323,0.706065,0.641123,0.604013,0.574472,0.549325,0.528573,0.50367,0.49073,0.480232,0.472663,0.466804,0.460945,0.456794,0.453132,0.451179,0.449226,0.447517,0.446784,0.445319,0.44361,0.451423,0.482918,0.529549,0.559579,0.584726,0.607431,0.62501,0.63209,0.644785,0.656504,0.663828,0.671153,0.677012,0.680674,0.684825,0.688487,0.68922,0.691905,0.693858,0.694591,0.695323,0.705333,0.63331,0.59913,0.569833,0.545418,0.525154,0.50074,0.488533,0.478523,0.471199,0.465583,0.459724,0.455818,0.452888,0.450446,0.449226,0.447028,0.445563,0.444831,0.443854,0.451423,0.488289,0.529549,0.559335,0.586191,0.607431,0.622812,0.630869,0.644785,0.656016,0.664073,0.67042,0.677256,0.680186,0.684337,0.687999,0.690196,0.692149,0.69337,0.694347,0.696544,0.704356,0.626474,0.593027,0.564462,0.541024,0.521981,0.49781,0.485847,0.47657,0.46949,0.464607,0.458747,0.454597,0.452155,0.449714,0.448249,0.44654,0.444831,0.44361,0.44361,0.451179,0.493416,0.528573,0.559335,0.58497,0.606699,0.624765,0.630625,0.644053,0.654063,0.66334,0.671641,0.675792,0.680919,0.683848,0.68751,0.689708,0.691417,0.693126,0.694347,0.695323,0.70045,0.621592,0.588144,0.559091,0.53785,0.519051,0.495613,0.483894,0.475105,0.468025,0.462165,0.457771,0.454108,0.451667,0.448737,0.447761,0.44654,0.445075,0.444099,0.443366,0.450446,0.49659,0.52784,0.559091,0.584726,0.606455,0.624033,0.630137,0.643809,0.655283,0.664073,0.671641,0.67628,0.680919,0.684581,0.687266,0.689464,0.692882,0.69337,0.694347,0.695323,0.698497,0.61622,0.582773,0.556649,0.534432,0.516365,0.492683,0.481941,0.47364,0.467292,0.462409,0.456794,0.454353,0.451179,0.448493,0.44654,0.443854,0.445563,0.444343,0.443366,0.451179,0.498543,0.530526,0.559823,0.58497,0.606455,0.624521,0.630137,0.644297,0.654795,0.663584,0.67042,0.676036,0.680919,0.684092,0.686534,0.689708,0.69044,0.692882,0.693858,0.694102,0.694347,0.615488,0.583261,0.555917,0.5337,0.51368,0.492683,0.481697,0.473152,0.467048,0.461189,0.456794,0.452399,0.451179,0.44947,0.448005,0.446296,0.445319,0.445319,0.44361,0.451423,0.500496,0.531991,0.5608,0.586191,0.607431,0.624765,0.631113,0.642832,0.654795,0.663096,0.669932,0.675547,0.680186,0.683604,0.686046,0.688731,0.690684,0.693614,0.69337,0.702647,0.689464,0.614023,0.581552,0.55494,0.533211,0.515389,0.491463,0.4795,0.472663,0.466316,0.460945,0.456306,0.454108,0.45069,0.448005,0.447272,0.446052,0.444831,0.444099,0.443366,0.451179,0.500984,0.532723,0.561532,0.586435,0.608408,0.624521,0.630137,0.643076,0.654551,0.663584,0.669932,0.675792,0.680674,0.684337,0.687266,0.68922,0.691417,0.692149,0.694347,0.703624,0.688731,0.615488,0.582284,0.555917,0.533211,0.515877,0.491218,0.480964,0.473396,0.466804,0.461189,0.457038,0.45362,0.451423,0.449226,0.447517,0.446052,0.445075,0.443366,0.44361,0.454841,0.503914,0.5337,0.561532,0.586923,0.607675,0.617685,0.632578,0.645274,0.655772,0.663828,0.670909,0.676036,0.680919,0.684337,0.687999,0.689464,0.691173,0.69337,0.693858,0.70338,0.683116,0.614023,0.581796,0.554452,0.533211,0.515633,0.492195,0.481697,0.473396,0.466072,0.461433,0.457038,0.453864,0.451179,0.44947,0.447517,0.446052,0.445075,0.443854,0.443366,0.45655,0.507576,0.538094,0.566415,0.590341,0.611093,0.619883,0.634775,0.647471,0.658946,0.665537,0.672129,0.677745,0.681407,0.686046,0.687999,0.68922,0.691661,0.692882,0.694102,0.704356,0.678477,0.614755,0.58204,0.555428,0.533455,0.515633,0.501961,0.481453,0.471199,0.467048,0.461189,0.457038,0.45362,0.451179,0.44947,0.447517,0.445563,0.445319,0.443854,0.44361,0.451179,0.497078,0.530282,0.559823,0.586435,0.605722,0.623789,0.62916,0.643809,0.654795,0.663584,0.671153,0.67628,0.680919,0.684337,0.687266,0.688975,0.691173,0.692638,0.693614,0.695567,0.6963,0.616709,0.583261,0.556893,0.534188,0.515877,0.500008,0.479744,0.472663,0.467292,0.460456,0.456062,0.45362,0.450446,0.448737,0.44654,0.445808,0.444587,0.443854,0.443366,0.45069,0.498054,0.531014,0.5608,0.585702,0.606699,0.624277,0.630137,0.643565,0.654307,0.664317,0.670665,0.675792,0.680674,0.684092,0.686534,0.688975,0.692393,0.693126,0.694347,0.694591,0.693858,0.615976,0.583017,0.556161,0.533944,0.515877,0.492439,0.481697,0.473884,0.465827,0.462165,0.455818,0.453376,0.451179,0.448981,0.447517,0.448005,0.444587,0.446296,0.443366,0.451667,0.50074,0.533211,0.561288,0.586191,0.607431,0.624521,0.630381,0.643076,0.654063,0.66334,0.67042,0.676036,0.680674,0.684337,0.687022,0.68922,0.691417,0.693126,0.694347,0.695323,0.690929,0.615976,0.583261,0.556161,0.533944,0.516121,0.493416,0.480964,0.473152,0.46656,0.460945,0.457038,0.45362,0.451179,0.449226,0.443854,0.44654,0.445319,0.445319,0.443366,0.455085,0.503182,0.534188,0.562753,0.5879,0.609384,0.626719,0.631113,0.644541,0.653574,0.664073,0.671153,0.676524,0.680919,0.684092,0.686778,0.689464,0.691417,0.692638,0.693858,0.694835,0.686778,0.615244,0.582773,0.555673,0.5337,0.515389,0.491707,0.481209,0.472908,0.46656,0.460945,0.456794,0.454108,0.451179,0.449714,0.447272,0.446052,0.444831,0.444099,0.443366,0.455329,0.505379,0.536385,0.564706,0.588876,0.609384,0.62623,0.632822,0.645274,0.656016,0.664561,0.671153,0.677012,0.681163,0.685069,0.687022,0.688731,0.69044,0.692882,0.695323,0.695323,0.683604,0.615732,0.583017,0.556161,0.533944,0.515633,0.492927,0.481941,0.47364,0.466804,0.461921,0.457038,0.45362,0.451423,0.449226,0.447761,0.445319,0.445319,0.444587,0.44361,0.458015,0.51075,0.541268,0.568856,0.592782,0.612558,0.630137,0.634775,0.646983,0.657237,0.665782,0.672129,0.678965,0.681895,0.684825,0.687755,0.690196,0.691905,0.693614,0.694591,0.695323,0.677989,0.616464,0.583505,0.556405,0.533211,0.516121,0.492439,0.482673,0.47364,0.466804,0.461433,0.457282,0.452644,0.451179,0.448493,0.448005,0.446296,0.445563,0.444587,0.44361,0.460945,0.517098,0.548104,0.574228,0.598886,0.617929,0.633555,0.637949,0.649912,0.660655,0.667735,0.674083,0.678965,0.682872,0.685801,0.687999,0.69044,0.691905,0.694102,0.694835,0.695567,0.671885,0.617441,0.584726,0.557137,0.53492,0.516854,0.493904,0.482673,0.473884,0.466804,0.461677,0.457038,0.453864,0.452155,0.449226,0.447761,0.446296,0.444831,0.444587,0.443366,0.466804,0.523445,0.553964,0.580331,0.603037,0.621347,0.63624,0.640146,0.651865,0.66041,0.668223,0.675547,0.679942,0.684825,0.68629,0.688243,0.69044,0.692638,0.693858,0.694835,0.696056,0.668223,0.617441,0.584726,0.55787,0.535409,0.517098,0.494392,0.482918,0.474372,0.467781,0.461921,0.45655,0.455085,0.452399,0.44947,0.447517,0.44654,0.445319,0.444587,0.444587,0.467536,0.528573,0.558846,0.585702,0.606943,0.623545,0.637949,0.643565,0.653574,0.662852,0.669932,0.67628,0.68043,0.684092,0.687755,0.690196,0.692149,0.693126,0.694591,0.695567,0.697032,0.66334,0.617929,0.585702,0.558358,0.535897,0.51783,0.491463,0.48365,0.474861,0.468269,0.462409,0.457771,0.454353,0.452155,0.45069,
