0.460456,0.458747,0.45948,0.461921,0.460945,0.460456,0.460212,0.463386,0.465583,0.465339,0.465827,0.466072,0.466804,0.465827,0.464851,0.464851,0.465827,0.467536,0.470954,0.474617,0.477546,0.47779,0.478523,0.478035,0.477058,0.476814,0.476326,0.475593,0.474617,0.47779,0.479744,0.478767,0.474617,0.469734,0.469245,0.469001,0.469978,0.468025,0.467781,0.465827,0.46656,0.467536,0.468269,0.469001,0.469001,0.468025,0.464851,0.462165,0.462898,0.463142,0.464607,0.466072,0.47071,0.473396,0.471931,0.468269,0.466804,0.468025,0.467048,0.468025,0.469245,0.468513,0.47071,0.47364,0.473396,0.469734,0.469245,0.470466,0.472908,0.474128,0.476326,0.477546,0.478035,0.478767,0.479988,0.480232,0.478523,0.477302,0.472908,0.468757,0.463874,0.460456,0.459236,0.458747,0.460945,0.463386,0.461921,0.458015,0.455329,0.456794,0.456794,0.458991,0.463142,0.466072,0.469978,0.471687,0.470954,0.471199,0.472663,0.47364,0.476081,0.478035,0.478279,0.4795,0.48072,0.480476,0.480232,0.479988,0.479744,0.479011,0.47657,0.474128,0.47364,0.474861,0.475105,0.475349,0.474617,0.473884,0.473884,0.471687,0.469734,0.466804,0.465827,0.465583,0.46363,0.462898,0.465827,0.467048,0.46949,0.468513,0.468025,0.467048,0.466072,0.463874,0.464118,0.464118,0.464118,0.464363,0.464851,0.465583,0.467536,0.467048,0.467781,0.472419,0.482429,0.48658,0.484382,0.483162,0.485603,0.491951,0.491463,0.486091,0.483406,0.482429,0.486336,0.48365,0.484382,0.489754,0.493416,0.493904,0.491707,0.488533,0.483406,0.481941,0.48365,0.482673,0.482429,0.483406,0.481697,0.478279,0.473396,0.472419,0.469978,0.465583,0.466316,0.46949,0.47071,0.470222,0.464851,0.461189,0.460945,0.462165,0.464118,0.468025,0.469734,0.47364,0.478523,0.481697,0.481453,0.479744,0.479011,0.475593,0.472419,0.471199,0.469001,0.464118,0.464118,0.461189,0.459236,0.456306,0.453376,0.450446,0.450446,0.448981,0.448249,0.444587,0.44361,0.443366,0.445319,0.445808,0.444587,0.441901,0.445075,0.447272,0.449226,0.450202,0.453864,0.458015,0.462165,0.465583,0.465095,0.465583,0.467048,0.467292,0.468757,0.470466,0.472419,0.47364,0.473884,0.474372,0.474128,0.474861,0.473884,0.474861,0.478279,0.478523,0.479988,0.478767,0.476326,0.473884,0.47071,0.467536,0.466072,0.465095,0.462898,0.460945,0.458015,0.454353,0.452888,0.456062,0.457527,0.460212,0.462409,0.464607,0.466072,0.467048,0.465583,0.46656,0.468513,0.468757,0.469001,0.468757,0.470222,0.47364,0.474861,0.476081,0.475105,0.476814,0.478279,0.478523,0.478767,0.480232,0.48072,0.4795,0.4795,0.478767,0.477058,0.475349,0.473884,0.472419,0.471931,0.470954,0.468025,0.46656,0.46656,0.465583,0.464851,0.464607,0.462409,0.461189,0.461189,0.462409,0.463386,0.46363,0.465827,0.468025,0.468025,0.468025,0.467536,0.468757,0.470954,0.472663,0.478523,0.485847,0.489509,0.493172,0.496101,0.498299,0.500984,0.500984,0.49781,0.494881,0.494148,0.490242,0.485603,0.482429,0.4795,0.477058,0.471199,0.467292,0.464118,0.462165,0.4607,0.458991,0.457527,0.455085,0.453864,0.452888,0.453132,0.451667,0.451179,0.451179,0.451179,0.454841,0.458259,0.464607,0.46656,0.468757,0.469001,0.468513,0.468025,0.464851,0.462409,0.460456,0.461677,0.463142,0.463142,0.46363,0.463386,0.46363,0.465095,0.467536,0.472419,0.475349,0.476814,0.476326,0.473396,0.469001,0.466072,0.464851,0.464607,0.465827,0.466804,0.468513,0.469978,0.469734,0.46949,0.466804,0.46656,0.464851,0.462898,0.461189,0.461433,0.462165,0.464118,0.466804,0.470954,0.469734,0.468757,0.46949,0.469734,0.471443,0.472663,0.473884,0.474861,0.474617,0.476326,0.478523,0.479988,0.480964,0.479744,0.480476,0.4795,0.479011,0.482429,0.48658,0.484382,0.480476,0.478035,0.475837,0.470466,0.465339,0.462898,0.46363,0.464607,0.463874,0.461433,0.459724,0.460212,0.459724,0.460212,0.460212,0.461189,0.461921,0.461433,0.459968,0.458747,0.461677,0.464118,0.46656,0.467781,0.469245,0.471443,0.474372,0.475349,0.47779,0.4795,0.480964,0.482429,0.482429,0.481453,0.480964,0.4795,0.476326,0.47364,0.471687,0.470466,0.468025,0.468513,0.467292,0.466316,0.466072,0.466072,0.467048,0.467536,0.467536,0.467048,0.467781,0.467781,0.467292,0.467048,0.466316,0.464363,0.465095,0.465339,0.465583,0.464607,0.465095,0.46656,0.466804,0.467048,0.468269,0.470466,0.47071,0.472175,0.47364,0.474372,0.473396,0.475105,0.475349,0.475349,0.475105,0.476814,0.47779,0.478035,0.4795,0.478767,0.478279,0.476081,0.47657,0.47657,0.474617,0.473152,0.471687,0.470954,0.469245,0.467292,0.466316,0.465827,0.466072,0.46656,0.467536,0.465583,0.463142,0.462898,0.464118,0.466804,0.467292,0.467292,0.467781,0.466804,0.467292,0.469001,0.468025,0.468269,0.46656,0.467292,0.468269,0.467536,0.467292,0.468757,0.471199,0.472663,0.475349,0.475349,0.47364,0.475105,0.474372,0.474861,0.473396,0.478279,0.485359,0.489509,0.492439,0.494392,0.494392,0.490242,0.482429,0.476326,0.472908,0.467781,0.464363,0.462654,0.46363,0.463386,0.464118,0.462898,0.461189,0.45948,0.457282,0.457527,0.458259,0.461677,0.466316,0.470466,0.472908,0.472175,0.47071,0.470466,0.471443,0.475349,0.478035,0.478035,0.476081,0.476326,0.475837,0.46949,0.461189,0.456306,0.458259,0.459968,0.464118,0.46949,0.471443,0.473884,0.478035,0.482918,0.48365,0.480964,0.475837,0.470466,0.466804,0.464118,0.464607,0.465827,0.467292,0.47071,0.47071,0.469245,0.467048,0.463874,0.462409,0.462409,0.461433,0.457038,0.451423,0.450202,0.448981,0.450202,0.454108,0.456794,0.461433,0.464607,0.467536,0.47071,0.473884,0.476814,0.4795,0.480476,0.481697,0.482185,0.479011,0.47779,0.478035,0.47779,0.47657,0.477058,0.478523,0.47657,0.474861,0.469734,0.464851,0.460212,0.457038,0.456794,0.45948,0.461433,0.4607,0.459236,0.456062,0.454353,0.456062,0.458503,0.461921,0.464851,0.46949,0.476814,0.482673,0.486091,0.484627,0.482185,0.478767,0.478035,0.476326,0.474372,0.473152,0.473152,0.473884,0.473152,0.47071,0.469978,0.471931,0.474861,0.476814,0.475837,0.47364,0.471199,0.470222,0.470466,0.470466,0.471931,0.472419,0.472419,0.471199,0.475837,0.482673,0.480476,0.477546,0.476081,0.478523,0.480232,0.47779,0.472663,0.469734,0.468269,0.466072,0.464607,0.45948,0.457771,0.457038,0.458015,0.460212,0.46363,0.471199,0.478035,0.483162,0.485847,0.487068,0.488289,0.492439,0.49366,0.492439,0.487068,0.487068,0.490242,0.491707,0.489998,0.488289,0.487068,0.485847,0.483406,0.477546,0.471687,0.465095,0.460456,0.461677,0.461677,0.462654,0.46363,0.462898,0.462898,0.463142,0.460456,0.459724,0.460212,0.460212,0.460212,0.458991,0.458991,0.459236,0.4607,0.463142,0.464607,0.461189,0.461921,0.465095,0.466072,0.467048,0.467536,0.465095,0.461189,0.461677,0.464851,0.468025,0.464607,0.462409,0.4607,0.458991,0.458259,0.459724,0.463142,0.464363,0.465095,0.464363,0.464363,0.466316,0.469978,0.471443,0.46949,0.465827,0.462654,0.461921,0.461921,0.461921,0.458503,0.455085,0.451423,0.449714,0.45069,0.452644,0.457282,0.461921,0.468025,0.471199,0.475837,0.479011,0.48072,0.481941,0.48658,0.492195,0.493172,0.489998,0.487312,0.485603,0.480964,0.478523,0.475837,0.476081,0.475105,0.47364,0.470954,0.469001,0.46656,0.466072,0.464118,0.462165,0.460212,0.45948,0.460945,0.4607,0.461189,0.461921,0.462654,0.462654,0.463142,0.463874,0.464118,0.46363,0.464118,0.465827,0.466072,0.468269,0.470954,0.474617,0.476814,0.477302,0.47657,0.476814,0.477546,0.47779,0.479011,0.478523,0.477302,0.475349,0.473884,0.475105,0.478767,0.481697,0.484627,0.483894,0.48072,0.478523,0.475349,0.472908,0.471687,0.472419,0.47364,0.471443,0.472908,0.47779,0.478767,0.479744,0.480964,0.48072,0.48072,0.479988,0.481697,0.478523,0.474617,0.472175,0.469734,0.468513,0.467048,0.466072,0.465583,0.464607,0.465583,0.467536,0.470222,0.469001,0.467536,0.466072,0.465095,0.464851,0.463874,0.463142,0.463142,0.462654,0.460945,0.458747,0.456062,0.455329,0.455573,0.456794,0.45948,0.45948,0.460945,0.461677,0.464118,0.46949,0.474617,0.477546,0.477058,0.473884,0.471931,0.470466,0.469001,0.469001,0.468025,0.468269,0.469978,0.472663,0.475837,0.480232,0.481941,0.48072,0.478279,0.475105,0.475593,0.472419,0.467048,0.462898,0.462409,0.461433,0.462165,0.465339,0.46949,0.469978,0.468025,0.469734,0.473396,0.476081,0.480476,0.481453,0.480232,0.474372,0.468025,0.463386,0.4607,0.45948,0.458503,0.460945,0.465827,0.468513,0.468757,0.468757,0.467048,0.467781,0.46949,0.471931,0.472908,0.472419,0.472419,0.470954,0.470466,0.467781,0.465339,0.466804,0.474861,0.482918,0.489265,0.489754,0.487556,0.483894,0.480964,0.479988,0.478523,0.474861,0.472663,0.470466,0.470954,0.470222,0.467536,0.464851,0.462898,0.462165,0.461189,0.4607,0.459968,0.458015,0.455573,0.454597,0.454108,0.453376,0.452888,0.453864,0.45948,0.461921,0.4607,0.460212,0.458259,0.458503,0.459724,0.462898,0.467048,0.477058,0.484138,0.489509,0.494392,0.495857,0.494148,0.494148,0.494392,0.494392,0.49366,0.491218,0.490242,0.485359,0.481453,0.481453,0.48365,0.485847,0.488289,0.486336,0.484382,0.483162,0.480964,0.478035,0.475105,0.471199,0.467536,0.463874,0.460212,0.459236,0.457771,0.457527,0.455329,0.449226,0.442634,0.437018,0.437263,0.437751,0.441657,0.447028,0.449714,0.450935,0.45362,0.455573,0.456306,0.458991,0.461433,0.464607,0.467048,0.469001,0.472663,0.474861,0.474617,0.474861,0.475837,0.476081,0.475837,0.474372,0.473884,0.471687,0.471443,0.471687,0.470466,0.470222,0.46949,0.468025,0.466804,0.464363,0.46656,0.467292,
0.462898,0.464118,0.465339,0.466316,0.466072,0.46363,0.463142,0.463874,0.466072,0.467292,0.469001,0.470954,0.471931,0.474617,0.475837,0.479011,0.482673,0.482918,0.479744,0.477058,0.475105,0.474617,0.475349,0.474372,0.474372,0.474372,0.474861,0.47364,0.473152,0.471199,0.471199,0.471199,0.472175,0.472175,0.469245,0.471687,0.471199,0.473884,0.475593,0.478035,0.478767,0.477546,0.476081,0.473396,0.470954,0.465583,0.459968,0.457771,0.459724,0.462165,0.464118,0.465095,0.462165,0.457527,0.457038,0.456794,0.457527,0.459724,0.462409,0.4607,0.457282,0.457771,0.456306,0.458747,0.46363,0.469978,0.476814,0.481697,0.48658,0.487556,0.489509,0.491707,0.495369,0.497078,0.496834,0.490486,0.483406,0.476326,0.468025,0.462409,0.460945,0.461433,0.462409,0.462898,0.463874,0.464363,0.462898,0.462409,0.462165,0.463142,0.464118,0.463386,0.462409,0.461921,0.463386,0.466072,0.469734,0.471443,0.475105,0.477058,0.477546,0.477546,0.476081,0.476814,0.477058,0.477546,0.476814,0.477546,0.478767,0.478767,0.476814,0.47657,0.474861,0.475593,0.476814,0.482429,0.488777,0.489265,0.480476,0.472908,0.473152,0.476326,0.477058,0.478523,0.478035,0.47364,0.46949,0.467781,0.463874,0.461677,0.460945,0.458747,0.458259,0.4607,0.462165,0.466072,0.467781,0.467536,0.469001,0.475837,0.478523,0.47657,0.475105,0.479011,0.481941,0.484138,0.482673,0.482918,0.486091,0.487556,0.487556,0.486091,0.485115,0.482918,0.48365,0.48072,0.479744,0.48072,0.479011,0.473152,0.466804,0.465095,0.464607,0.467048,0.468513,0.463386,0.4607,0.457771,0.458503,0.460456,0.461189,0.464118,0.467292,0.466072,0.465339,0.466804,0.464607,0.463142,0.462898,0.464118,0.466072,0.470954,0.476326,0.479744,0.481453,0.486091,0.489021,0.485603,0.480964,0.474128,0.46949,0.469245,0.467781,0.46656,0.463386,0.460456,0.45655,0.454353,0.453376,0.451179,0.44947,0.448981,0.450202,0.451423,0.451423,0.451423,0.449226,0.447272,0.448981,0.450935,0.454108,0.456306,0.459724,0.463386,0.465583,0.466072,0.466804,0.470222,0.475593,0.481697,0.484382,0.485603,0.485847,0.487312,0.484627,0.486336,0.490974,0.492439,0.485847,0.48072,0.474617,0.470222,0.46949,0.468757,0.46656,0.459236,0.455329,0.455329,0.45362,0.452888,0.452888,0.453132,0.454108,0.456062,0.457771,0.459724,0.468025,0.475349,0.483406,0.487312,0.484627,0.478767,0.474372,0.472663,0.471199,0.468513,0.465339,0.462165,0.460212,0.462165,0.468025,0.471687,0.474372,0.473152,0.469978,0.467536,0.471199,0.477058,0.482429,0.484627,0.487068,0.489509,0.489998,0.489509,0.487556,0.48658,0.486336,0.485603,0.483406,0.475349,0.470466,0.469734,0.471199,0.466804,0.462409,0.458991,0.45948,0.461189,0.459968,0.457282,0.455573,0.453132,0.451179,0.450202,0.454353,0.457282,0.45655,0.456306,0.455085,0.455085,0.457282,0.461921,0.46656,0.469734,0.473396,0.477058,0.478523,0.477546,0.475105,0.472419,0.472419,0.472663,0.474617,0.47364,0.473396,0.473396,0.472419,0.472908,0.471931,0.47071,0.467536,0.465339,0.462165,0.457771,0.453376,0.449226,0.447272,0.449226,0.458259,0.462898,0.463142,0.465095,0.467048,0.468025,0.469245,0.471687,0.472175,0.471687,0.471443,0.473884,0.47657,0.478523,0.482429,0.486824,0.490486,0.492683,0.493172,0.492439,0.491951,0.491463,0.492195,0.491218,0.490486,0.486824,0.482918,0.479011,0.475837,0.474617,0.474617,0.47364,0.472419,0.472419,0.475349,0.476814,0.476814,0.476326,0.475105,0.474128,0.472175,0.468269,0.465583,0.461433,0.459968,0.455818,0.452644,0.449226,0.448249,0.44947,0.451179,0.452644,0.453864,0.455329,0.457282,0.455573,0.454108,0.454353,0.456062,0.463874,0.468025,0.469001,0.469734,0.469734,0.472663,0.474617,0.47657,0.477546,0.475593,0.472175,0.470954,0.472908,0.474128,0.475105,0.473396,0.472908,0.471931,0.47364,0.472419,0.471931,0.469978,0.469001,0.475105,0.478767,0.480476,0.480476,0.47657,0.469978,0.462165,0.45655,0.452399,0.448493,0.448493,0.451179,0.455085,0.459968,0.462654,0.467048,0.473396,0.477546,0.479744,0.48365,0.493904,0.495613,0.494636,0.494392,0.49659,0.496834,0.496834,0.494392,0.491463,0.489021,0.488045,0.487556,0.486091,0.484627,0.482429,0.475349,0.469978,0.463386,0.457527,0.451423,0.445808,0.441169,0.43653,0.434821,0.442145,0.447028,0.45069,0.454841,0.458991,0.46363,0.466316,0.469978,0.47071,0.471199,0.470954,0.472175,0.472908,0.473152,0.477058,0.478767,0.481941,0.485603,0.487312,0.48658,0.485359,0.485359,0.48365,0.480232,0.475837,0.471931,0.473152,0.475349,0.475105,0.477546,0.477058,0.474861,0.472908,0.47071,0.468025,0.464363,0.459968,0.456794,0.457282,0.456794,0.457527,0.458747,0.457038,0.457527,0.460212,0.462165,0.459968,0.459236,0.463874,0.468513,0.470222,0.472419,0.47364,0.474617,0.47779,0.479011,0.480476,0.4795,0.476326,0.477058,0.479744,0.478523,0.474617,0.472175,0.471199,0.469734,0.468513,0.465827,0.462898,0.460456,0.462898,0.464607,0.467292,0.469001,0.46949,0.46949,0.46949,0.471443,0.471687,0.471443,0.474128,0.474372,0.472663,0.471199,0.469978,0.469001,0.469734,0.470954,0.471443,0.471199,0.471931,0.471931,0.472908,0.474128,0.469001,0.46656,0.465827,0.467048,0.466804,0.466804,0.46656,0.470954,0.474128,0.476326,0.478035,0.478279,0.478523,0.4795,0.480964,0.47779,0.471199,0.467292,0.468025,0.469734,0.472175,0.471443,0.470466,0.465583,0.461189,0.458503,0.457771,0.454841,0.456794,0.459968,0.460456,0.457282,0.455329,0.458503,0.4607,0.46363,0.46363,0.464363,0.468757,0.470954,0.469734,0.469734,0.471687,0.473396,0.479011,0.479255,0.478767,0.48072,0.481697,0.481941,0.483162,0.48365,0.483406,0.480476,0.475593,0.472663,0.467781,0.462654,0.458991,0.45655,0.456062,0.454597,0.454597,0.454841,0.455573,0.456062,0.460212,0.464363,0.467781,0.471443,0.476081,0.478767,0.478279,0.475105,0.475837,0.475105,0.474617,0.473884,0.475105,0.474617,0.477546,0.478523,0.47657,0.472663,0.47071,0.471931,0.471931,0.473396,0.473152,0.471199,0.46949,0.468757,0.468025,0.467048,0.462654,0.459724,0.457771,0.459968,0.4607,0.461189,0.461433,0.460212,0.457771,0.45655,0.454353,0.456062,0.456794,0.455329,0.456062,0.457527,0.458991,0.462654,0.463142,0.462165,0.4607,0.4607,0.462409,0.464363,0.466804,0.46949,0.473396,0.474861,0.473396,0.473884,0.473152,0.473152,0.473152,0.473152,0.474617,0.478767,0.481941,0.48365,0.485847,0.485603,0.485115,0.480476,0.476814,0.474861,0.473396,0.476081,0.484382,0.488045,0.48658,0.481453,0.474861,0.468025,0.466804,0.465339,0.465583,0.466804,0.464363,0.463142,0.461433,0.460456,0.465095,0.468025,0.471443,0.473884,0.476081,0.478523,0.481453,0.483406,0.484138,0.484138,0.483406,0.480232,0.478767,0.47779,0.478035,0.475593,0.473396,0.472908,0.470222,0.469734,0.470954,0.47071,0.469001,0.467048,0.465095,0.462654,0.461677,0.460212,0.459236,0.459236,0.458747,0.458259,0.456062,0.454597,0.454597,0.457038,0.457282,0.458015,0.458747,0.458503,0.459968,0.459968,0.460212,0.462654,0.464607,0.465095,0.465339,0.465095,0.468025,0.470222,0.472663,0.474617,0.474861,0.474372,0.473396,0.475349,0.479988,0.484871,0.488045,0.488289,0.486091,0.481941,0.477302,0.470954,0.464118,0.4607,0.460456,0.460456,0.461189,0.45948,0.458503,0.458747,0.462165,0.467536,0.474861,0.48365,0.487556,0.484871,0.478767,0.47364,0.47071,0.466804,0.464851,0.462898,0.460945,0.458259,0.458259,0.461921,0.466804,0.474372,0.479744,0.484138,0.486824,0.49073,0.498054,0.504891,0.505135,0.503182,0.50367,0.502449,0.500008,0.494392,0.487556,0.481697,0.474617,0.469978,0.465583,0.462654,0.459236,0.454597,0.450446,0.448249,0.444099,0.442634,0.443366,0.447028,0.448005,0.44654,0.444099,0.445075,0.448493,0.453132,0.457771,0.460945,0.462654,0.469245,0.476081,0.480964,0.483894,0.487556,0.489265,0.486091,0.481209,0.477058,0.476814,0.478279,0.478035,0.478523,0.476326,0.473884,0.468757,0.465827,0.46656,0.475105,0.480964,0.480476,0.480476,0.475593,0.472175,0.47071,0.468513,0.464607,0.464607,0.464363,0.463874,0.463142,0.462165,0.460456,0.46363,0.465583,0.466316,0.467536,0.468513,0.468025,0.468513,0.470954,0.473152,0.474617,0.47657,0.47779,0.477546,0.475349,0.471687,0.469001,0.468025,0.468025,0.468757,0.47071,0.472419,0.473884,0.474617,0.474861,0.474617,0.474617,0.473884,0.475593,0.474372,0.47071,0.468757,0.470222,0.472663,0.474617,0.475105,0.471687,0.470222,0.472419,0.474128,0.473396,0.47071,0.471199,0.471931,0.472663,0.471931,0.468757,0.466316,0.464363,0.466804,0.46949,0.474128,0.475837,0.475837,0.478523,0.481697,0.48365,0.483894,0.478767,0.475105,0.470466,0.46656,0.462898,0.459968,0.457038,0.458503,0.465095,0.468025,0.468513,0.468757,0.466316,0.464118,0.463142,0.462165,0.463386,0.463386,0.463386,0.465827,0.468025,0.468025,0.467048,0.464851,0.463386,0.46363,0.465583,0.46656,0.465827,0.464851,0.465095,0.464851,0.464363,0.465827,0.465339,0.467048,0.472419,0.474617,0.47657,0.477058,0.479011,0.480232,0.482429,0.480232,0.479988,0.478767,0.475837,0.477302,0.480232,0.48365,0.488045,0.488533,0.484382,0.478035,0.474861,0.474128,0.471443,0.467292,0.464118,0.464118,0.468269,0.471931,0.474617,0.476081,0.474372,0.471687,0.471443,0.464363,0.45948,0.458503,0.457038,0.451423,0.447272,0.447272,0.449226,0.451423,0.456794,0.464118,0.467781,0.47364,0.477302,0.476326,0.474617,0.476081,0.480232,0.47779,0.474861,0.473152,0.475593,0.477302,0.478523,0.480476,0.479011,0.480964,0.479011,0.474861,0.471687,0.467781,0.46363,0.461189,0.457282,0.455085,0.455329,0.455818,0.457527,0.457282,0.456306,
0.47779,0.47779,0.476814,0.474617,0.473152,0.474372,0.474861,0.473884,0.474128,0.475105,0.474617,0.472908,0.471443,0.470466,0.470466,0.467536,0.462654,0.457771,0.452155,0.447028,0.444099,0.444099,0.445319,0.447272,0.447272,0.444099,0.438727,0.414801,0.371099,0.348882,0.343511,0.371099,0.401373,0.427741,0.444099,0.452155,0.458015,0.460945,0.465095,0.471443,0.473152,0.477546,0.475837,0.475837,0.47779,0.477546,0.478523,0.479744,0.481697,0.485359,0.484627,0.484627,0.48658,0.484871,0.485847,0.482673,0.479744,0.47779,0.47657,0.477058,0.4795,0.484382,0.487068,0.491463,0.49366,0.492683,0.491463,0.49073,0.491463,0.488045,0.484138,0.483894,0.485603,0.486336,0.484871,0.483162,0.482673,0.4795,0.477058,0.478279,0.480232,0.485359,0.49073,0.493172,0.493172,0.494636,0.494881,0.494148,0.49073,0.486824,0.483894,0.478767,0.472175,0.466804,0.461921,0.456794,0.451423,0.450202,0.448981,0.444831,0.442145,0.44239,0.442634,0.445319,0.448737,0.451667,0.458259,0.46363,0.468269,0.472663,0.472663,0.467781,0.462165,0.460212,0.462165,0.46363,0.464851,0.465339,0.463874,0.465339,0.469734,0.475593,0.480232,0.484627,0.487312,0.4878,0.488045,0.489021,0.487556,0.481209,0.477058,0.473152,0.471443,0.46949,0.471443,0.470954,0.464607,0.457527,0.455818,0.455085,0.452888,0.452155,0.457282,0.464607,0.470466,0.474861,0.475105,0.472908,0.472908,0.474372,0.477302,0.477058,0.475837,0.475349,0.475349,0.476814,0.47779,0.480964,0.482673,0.484382,0.486824,0.49073,0.492439,0.491463,0.490242,0.489021,0.487556,0.487556,0.487556,0.484382,0.481697,0.479988,0.478035,0.475837,0.472908,0.470954,0.465095,0.461677,0.459724,0.459236,0.461677,0.461677,0.462898,0.462654,0.463386,0.464851,0.46656,0.464851,0.462898,0.46363,0.465339,0.468757,0.472175,0.473884,0.473884,0.474861,0.478523,0.478767,0.480232,0.480476,0.481697,0.483162,0.484382,0.484382,0.483406,0.48365,0.479744,0.480964,0.480476,0.478279,0.476081,0.470954,0.468025,0.464851,0.459236,0.45655,0.458259,0.460212,0.462898,0.462409,0.458259,0.452155,0.448249,0.448981,0.454108,0.460212,0.463142,0.463874,0.463142,0.462898,0.461677,0.462409,0.465339,0.469245,0.474128,0.478523,0.478523,0.476326,0.474617,0.474861,0.472175,0.469245,0.46949,0.47071,0.471199,0.472663,0.475593,0.478767,0.482185,0.484382,0.484138,0.484627,0.482673,0.476326,0.470954,0.467292,0.462654,0.460212,0.455085,0.452644,0.450202,0.443854,0.44239,0.447517,0.452644,0.458503,0.462898,0.466072,0.466804,0.467292,0.467048,0.467048,0.466316,0.468269,0.469978,0.473152,0.475349,0.476326,0.478035,0.479988,0.481209,0.481697,0.48365,0.487068,0.488045,0.489509,0.488289,0.489509,0.488045,0.484382,0.481209,0.478279,0.476326,0.474617,0.474861,0.473396,0.471687,0.469734,0.467292,0.464851,0.461921,0.45948,0.4607,0.4607,0.461189,0.461433,0.462165,0.464118,0.464118,0.466316,0.466072,0.465095,0.465095,0.466072,0.466804,0.465095,0.464607,0.467048,0.47071,0.474372,0.47779,0.480476,0.481453,0.482673,0.484627,0.484382,0.484627,0.486091,0.488533,0.491463,0.490242,0.487068,0.484138,0.481453,0.475105,0.467781,0.462898,0.458259,0.454841,0.451423,0.448493,0.447517,0.445075,0.444587,0.446296,0.448005,0.452399,0.457282,0.461189,0.465583,0.471199,0.47364,0.474128,0.474617,0.471443,0.466072,0.462898,0.462898,0.462165,0.460945,0.461189,0.456062,0.451911,0.44654,0.443854,0.450446,0.459724,0.466316,0.468025,0.465827,0.461433,0.464851,0.473884,0.481453,0.486336,0.485603,0.485603,0.485359,0.482918,0.480232,0.478035,0.477302,0.476326,0.476814,0.480232,0.476326,0.469978,0.469978,0.474372,0.475837,0.477546,0.479255,0.478523,0.475837,0.472663,0.468269,0.464607,0.463386,0.463874,0.464118,0.463874,0.464118,0.466072,0.470954,0.475837,0.482673,0.486824,0.488289,0.489509,0.493416,0.496101,0.494148,0.499031,0.50367,0.501472,0.499031,0.494392,0.489021,0.485359,0.4795,0.476326,0.472908,0.46949,0.464607,0.45948,0.455085,0.452644,0.453132,0.45362,0.454597,0.455573,0.456306,0.454353,0.449226,0.443854,0.44361,0.446784,0.451667,0.456306,0.460945,0.464851,0.46656,0.469245,0.468757,0.470466,0.471199,0.469978,0.471199,0.467536,0.466804,0.468269,0.47071,0.473396,0.475593,0.476081,0.47657,0.476326,0.471443,0.466316,0.462165,0.458259,0.453376,0.445319,0.438727,0.434577,0.428962,0.425544,0.425544,0.429206,0.436042,0.441901,0.446784,0.451667,0.454597,0.459236,0.462654,0.467048,0.467048,0.467536,0.470222,0.470954,0.471687,0.472663,0.474128,0.474128,0.471931,0.469978,0.472663,0.472663,0.474128,0.472419,0.469245,0.469978,0.470222,0.471443,0.474861,0.473884,0.473884,0.475593,0.476081,0.47779,0.480232,0.482673,0.480476,0.479988,0.475105,0.467292,0.4607,0.459724,0.460456,0.465095,0.469978,0.472175,0.472175,0.469978,0.467536,0.464851,0.466804,0.468269,0.464851,0.460456,0.457771,0.459724,0.465827,0.472663,0.474861,0.479255,0.48365,0.485603,0.485115,0.487068,0.489754,0.494392,0.501961,0.505867,0.5066,0.505867,0.503426,0.498787,0.494881,0.491218,0.487556,0.483162,0.4795,0.473396,0.466072,0.457038,0.450202,0.445563,0.442878,0.439948,0.438727,0.43946,0.440681,0.443366,0.448493,0.452155,0.455085,0.457527,0.462654,0.465583,0.469245,0.474128,0.478279,0.479011,0.479011,0.482673,0.4878,0.49073,0.491707,0.491463,0.491951,0.49073,0.491463,0.491463,0.492195,0.491463,0.49073,0.489754,0.486336,0.482429,0.479744,0.476081,0.473152,0.473152,0.472663,0.471687,0.466804,0.462898,0.459968,0.452399,0.446784,0.442145,0.441657,0.441413,0.441169,0.441657,0.448249,0.45069,0.455085,0.459968,0.463874,0.465583,0.466072,0.469245,0.473396,0.477546,0.479988,0.483162,0.485603,0.486336,0.483406,0.477546,0.473884,0.473396,0.476081,0.479988,0.482673,0.488045,0.488533,0.485603,0.482429,0.479744,0.47657,0.474617,0.474128,0.475593,0.482429,0.48072,0.475105,0.470222,0.46949,0.471687,0.472175,0.471443,0.470466,0.47071,0.472663,0.472908,0.471199,0.46949,0.471443,0.473884,0.474617,0.474128,0.472175,0.469978,0.473152,0.477546,0.482429,0.485603,0.487068,0.485359,0.484382,0.48365,0.484627,0.483406,0.479988,0.477546,0.47657,0.471931,0.465827,0.45948,0.456062,0.45655,0.456062,0.456062,0.453864,0.453132,0.454841,0.456794,0.454597,0.454108,0.457282,0.461189,0.464851,0.464851,0.465583,0.466316,0.467781,0.468025,0.468513,0.46949,0.469978,0.470954,0.471687,0.46949,0.465583,0.463142,0.464118,0.466804,0.470954,0.473396,0.476326,0.478767,0.4795,0.47779,0.475349,0.475105,0.475593,0.476814,0.47779,0.477302,0.475349,0.471443,0.463386,0.45948,0.457038,0.458503,0.460456,0.461677,0.462165,0.462654,0.46363,0.466072,0.46656,0.467292,0.466804,0.468513,0.470954,0.473396,0.476814,0.478523,0.479988,0.480964,0.479744,0.478767,0.478523,0.478279,0.475837,0.47364,0.471443,0.470954,0.470954,0.470222,0.469978,0.469245,0.465583,0.463386,0.461677,0.45948,0.458259,0.457771,0.456062,0.454353,0.454353,0.454108,0.454841,0.456062,0.456794,0.458747,0.459724,0.458259,0.456794,0.454597,0.453864,0.454597,0.455818,0.457038,0.460456,0.463874,0.465827,0.465339,0.463142,0.463142,0.46363,0.465583,0.468269,0.469978,0.469978,0.469978,0.469734,0.471199,0.470954,0.47071,0.470222,0.467048,0.463386,0.466316,0.466072,0.466804,0.467048,0.467536,0.468025,0.464363,0.459236,0.45655,0.454841,0.453864,0.453132,0.449714,0.447028,0.447272,0.448249,0.450446,0.453864,0.456794,0.4607,0.46363,0.462654,0.462165,0.461921,0.465827,0.473884,0.48072,0.485603,0.484871,0.483162,0.483162,0.48365,0.484627,0.48365,0.481453,0.478767,0.478035,0.47657,0.475837,0.474372,0.472663,0.470466,0.469245,0.468025,0.465827,0.465827,0.467781,0.468513,0.468757,0.469001,0.469978,0.469001,0.469001,0.46949,0.471199,0.473152,0.474617,0.476081,0.478523,0.480476,0.480232,0.481697,0.481941,0.482429,0.481453,0.48072,0.48072,0.480476,0.478767,0.472419,0.468025,0.468757,0.468269,0.473152,0.478767,0.478767,0.477546,0.475105,0.473884,0.474128,0.473884,0.473884,0.474128,0.475349,0.467536,0.457038,0.456306,0.462654,0.46949,0.478767,0.479744,0.476326,0.472419,0.469001,0.46656,0.465339,0.463386,0.459724,0.458015,0.459968,0.464363,0.469001,0.47071,0.469734,0.469245,0.465583,0.459724,0.457527,0.458503,0.467048,0.474861,0.48365,0.4878,0.488777,0.488045,0.486336,0.484871,0.479744,0.475837,0.474861,0.476081,0.476326,0.472419,0.468269,0.463142,0.457038,0.452888,0.45069,0.452399,0.453376,0.456062,0.457282,0.458015,0.457038,0.458747,0.457771,0.457527,0.458991,0.465827,0.473152,0.4795,0.484627,0.487312,0.484871,0.479255,0.475349,0.472419,0.468025,0.464363,0.463874,0.465095,0.466072,0.467781,0.47071,0.468513,0.465583,0.471931,0.481697,0.488045,0.492439,0.494392,0.492683,0.48658,0.480232,0.475105,0.467781,0.462898,0.458259,0.452155,0.440681,0.429694,0.430671,0.429938,0.437751,0.458747,0.477546,0.486091,0.485603,0.475349,0.469001,0.47071,0.478767,0.488533,0.488533,0.484382,0.4795,0.472175,0.461677,0.453132,0.445319,0.456306,0.474861,0.485603,0.488045,0.48365,0.471443,0.468269,0.469245,0.466072,0.460212,0.452888,0.445808,0.442634,0.435798,0.425788,0.430671,0.445808,0.461189,0.472419,0.482429,0.4878,0.485359,0.481453,0.475837,0.471687,0.473396,0.4795,0.482429,0.483162,0.485359,0.483406,0.481209,0.48072,0.481209,0.483162,0.485847,0.487556,0.488289,0.491218,0.490974,0.487556,0.485115,0.484138,0.482429,0.482429,0.486336,0.487556,0.489754,0.491218,0.491218,0.49073,0.488045,0.482673,0.477546,0.474617,0.474617,
0.440681,0.48072,0.526131,0.549081,0.54493,0.537118,0.535164,0.53492,0.535897,0.52369,0.491951,0.462898,0.440681,0.417975,0.403082,0.405035,0.427253,0.460945,0.492927,0.518807,0.539315,0.559579,0.568612,0.568856,0.560555,0.5337,0.501717,0.484138,0.473884,0.47364,0.494636,0.521492,0.542733,0.554696,0.558846,0.558358,0.548592,0.547372,0.552499,0.554452,0.555917,0.561532,0.550057,0.506355,0.443854,0.406256,0.401862,0.405524,0.398688,0.41651,0.446784,0.461921,0.453132,0.411139,0.365972,0.343023,0.347906,0.355474,0.370367,0.412848,0.44239,0.460212,0.467048,0.469734,0.490486,0.526619,0.550301,0.521492,0.470222,0.441657,0.453132,0.495857,0.540291,0.572274,0.581064,0.567391,0.561288,0.561532,0.554696,0.552987,0.570565,0.549081,0.517586,0.521492,0.545174,0.574472,0.587655,0.524422,0.399176,0.280278,0.221439,0.187747,0.203372,0.270024,0.306157,0.303716,0.280766,0.257084,0.259037,0.293217,0.315435,0.324468,0.318608,0.302007,0.271489,0.248051,0.263188,0.322515,0.410895,0.461189,0.464851,0.458747,0.483894,0.553475,0.625742,0.680674,0.759777,0.861341,0.893324,0.839857,0.728771,0.62208,0.524422,0.374273,0.254643,0.216068,0.247074,0.322515,0.386481,0.414313,0.416022,0.443122,0.480476,0.484382,0.457282,0.443122,0.450202,0.471443,0.51075,0.559091,0.578622,0.592782,0.598154,0.587411,0.590585,0.60914,0.586679,0.531991,0.494148,0.469734,0.485847,0.530526,0.543709,0.502937,0.478279,0.51368,0.53077,0.532479,0.529305,0.511971,0.468025,0.421149,0.382086,0.318608,0.265385,0.288579,0.333257,0.346685,0.392828,0.490974,0.596201,0.667491,0.687266,0.653574,0.577646,0.46949,0.374029,0.333501,0.331792,0.353277,0.405035,0.485115,0.514656,0.528328,0.54078,0.55787,0.558846,0.537118,0.501472,0.513191,0.594003,0.645029,0.617441,0.550301,0.545418,0.588388,0.604746,0.584482,0.525154,0.418708,0.307866,0.167727,0.0825208,0.0815442,0.0673838,0.049073,0.112795,0.22974,0.350591,0.458259,0.541756,0.623056,0.676036,0.661387,0.617441,0.588876,0.565194,0.536873,0.48658,0.441413,0.421881,0.429938,0.425788,0.424323,0.448493,0.484627,0.516609,0.542733,0.558846,0.574716,0.588876,0.572763,0.563973,0.578866,0.632578,0.65333,0.585946,0.508064,0.463142,0.450202,0.44654,0.44947,0.458015,0.456794,0.469978,0.494881,0.524666,0.558114,0.640879,0.720958,0.72462,0.635264,0.52369,0.458991,0.432868,0.390143,0.368414,0.391363,0.384039,0.338872,0.243656,0.192874,0.211917,0.270512,0.329839,0.372808,0.41944,0.473396,0.494392,0.469978,0.456306,0.423835,0.40943,0.450446,0.462409,0.431403,0.392096,0.358892,0.356939,0.375494,0.414313,0.472908,0.504891,0.475349,0.417243,0.439704,0.496345,0.542489,0.56788,0.581796,0.579599,0.578134,0.54786,0.483406,0.424567,0.404059,0.417243,0.458747,0.500984,0.568368,0.643809,0.662608,0.621592,0.577646,0.577646,0.593759,0.603769,0.593515,0.558358,0.466316,0.338872,0.251225,0.224857,0.280278,0.341802,0.366461,0.386969,0.482673,0.567147,0.615732,0.632578,0.629648,0.623789,0.582773,0.486824,0.397223,0.361578,0.363287,0.315679,0.242435,0.251957,0.324224,0.388678,0.447517,0.445319,0.382574,0.326177,0.306645,0.312749,0.350835,0.40235,0.433112,0.469245,0.534676,0.586191,0.629892,0.636484,0.626963,0.632822,0.649912,0.656504,0.617685,0.565438,0.535164,0.550057,0.53077,0.458991,0.38819,0.36231,0.371832,0.3252,0.276127,0.34107,0.465827,0.570077,0.593515,0.577646,0.570321,0.559823,0.542977,0.514168,0.490486,0.419928,0.342779,0.287114,0.292241,0.331304,0.407965,0.492439,0.583261,0.668467,0.724376,0.766125,0.757824,0.664561,0.528084,0.394049,0.269535,0.184329,0.165042,0.161624,0.145754,0.159915,0.227054,0.265141,0.311284,0.370611,0.44947,0.521736,0.573007,0.602792,0.623545,0.643809,0.73048,0.77052,0.752209,0.704845,0.663096,0.628672,0.606943,0.563729,0.477546,0.371832,0.250492,0.150637,0.101564,0.153567,0.304936,0.474617,0.581796,0.595468,0.523201,0.434821,0.424567,0.457282,0.494148,0.482673,0.425055,0.368658,0.374517,0.430182,0.477546,0.516609,0.54493,0.55787,0.568856,0.584237,0.585214,0.58912,0.60206,0.645518,0.70338,0.717052,0.723644,0.753185,0.726085,0.644053,0.59791,0.522957,0.431403,0.359136,0.309575,0.222171,0.159915,0.171878,0.213626,0.33521,0.485603,0.5149,0.441657,0.400153,0.397711,0.428229,0.464363,0.491463,0.507576,0.486091,0.422858,0.347906,0.320562,0.368414,0.415778,0.437751,0.418708,0.355718,0.275151,0.194339,0.19556,0.267826,0.359869,0.458991,0.555917,0.610605,0.631113,0.637217,0.622568,0.56495,0.539559,0.596445,0.680674,0.733654,0.737804,0.743175,0.75758,0.772473,0.751476,0.685313,0.619394,0.512703,0.32398,0.176028,0.159182,0.184817,0.237552,0.301518,0.302007,0.243168,0.214115,0.245853,0.31104,0.393072,0.427008,0.435798,0.428962,0.444587,0.479988,0.544686,0.570809,0.548348,0.461921,0.353765,0.23389,0.139162,0.188235,0.381842,0.536385,0.607187,0.620371,0.629648,0.642344,0.647959,0.653086,0.656016,0.629892,0.554208,0.495857,0.471931,0.49781,0.5337,0.543221,0.522225,0.497078,0.464607,0.396735,0.348394,0.334966,0.417731,0.525154,0.55787,0.546883,0.5337,0.540047,0.540291,0.46949,0.364019,0.300053,0.304692,0.34229,0.421637,0.570809,0.692882,0.735119,0.712902,0.689708,0.675059,0.67042,0.63331,0.568612,0.505623,0.435065,0.384527,0.416022,0.382086,0.301762,0.250248,0.267826,0.311772,0.404303,0.458503,0.457038,0.436042,0.398444,0.334966,0.289067,0.262943,0.263432,0.227298,0.197269,0.259037,0.349371,0.421393,0.482429,0.564218,0.685069,0.831556,0.921157,0.920424,0.866712,0.782483,0.682628,0.59205,0.477058,0.359869,0.249516,0.164309,0.135988,0.186282,0.237797,0.261479,0.29395,0.337407,0.40235,0.458503,0.482429,0.457038,0.465339,0.532479,0.592782,0.639902,0.629648,0.559823,0.553719,0.614267,0.67335,0.704845,0.732677,0.762219,0.762707,0.736584,0.640879,0.492195,0.354498,0.243168,0.137209,0.0595712,0.0217288,0.0190433,0.0502937,0.111574,0.19678,0.344976,0.502205,0.613535,0.692882,0.822278,0.940444,0.9402,0.940932,0.9402,0.866957,0.6692,0.458991,0.235111,0.000488289,0.000488289,0.000244144,0,0,0.167727,0.324224,0.465827,0.566903,0.62208,0.624521,0.59498,0.561044,0.51783,0.60914,0.768811,0.879164,0.866224,0.740002,0.631357,0.558846,0.44239,0.302495,0.171145,0.100343,0.0590829,0.0551766,0.117189,0.218997,0.29688,0.343999,0.385504,0.466072,0.591806,0.723644,0.835218,0.90309,0.941665,0.939712,0.855482,0.739513,0.659678,0.546395,0.425299,0.314458,0.209476,0.112306,0.0661631,0.13257,0.239017,0.307866,0.303227,0.292241,0.362554,0.460945,0.548104,0.595712,0.611337,0.611093,0.611093,0.62501,0.650889,0.654795,0.631113,0.565927,0.488533,0.457771,0.462654,0.463874,0.448493,0.447517,0.444099,0.367437,0.359136,0.44654,0.505867,0.495125,0.455329,0.505867,0.655039,0.8047,0.866224,0.844984,0.753429,0.666026,0.614023,0.481697,0.250492,0.000244144,0.000488289,0.000732433,0,0.113039,0.2168,0.318364,0.441901,0.607431,0.72462,0.762219,0.73341,0.632822,0.497566,0.407233,0.360601,0.307866,0.302983,0.34107,0.33106,0.370123,0.517342,0.666026,0.739025,0.745617,0.776867,0.833509,0.823255,0.768811,0.645029,0.453376,0.276616,0.230228,0.304448,0.403571,0.500984,0.52369,0.465339,0.394537,0.349126,0.302007,0.209476,0.123537,0.0922866,0.150637,0.25977,0.366461,0.476081,0.534676,0.549813,0.579843,0.628183,0.659678,0.62623,0.533455,0.413092,0.339117,0.396002,0.566659,0.755871,0.846937,0.857923,0.844984,0.828626,0.782727,0.681651,0.531014,0.295415,0.0827649,0.000488289,0.0341802,0.123781,0.210697,0.325444,0.412116,0.462898,0.467536,0.43946,0.390631,0.297368,0.22266,0.235599,0.325444,0.498299,0.617685,0.65211,0.720226,0.84181,0.901869,0.866957,0.806409,0.762219,0.645029,0.452399,0.228763,0.0568856,0.000488289,0.000244144,0.000244144,0.0498054,0.139406,0.227054,0.311528,0.433845,0.533455,0.619394,0.669444,0.672862,0.66627,0.668223,0.668223,0.656016,0.637217,0.598398,0.554452,0.531014,0.529061,0.525887,0.516854,0.537362,0.576913,0.615488,0.660899,0.662364,0.605722,0.568124,0.566903,0.544686,0.506111,0.435065,0.360113,0.330083,0.304692,0.263432,0.241947,0.260746,0.318608,0.382086,0.471687,0.592782,0.694591,0.753185,0.768322,0.706554,0.531746,0.337407,0.220218,0.161379,0.172122,0.244877,0.323735,0.413825,0.479988,0.478035,0.469245,0.497078,0.535409,0.558114,0.563973,0.550057,0.508064,0.43653,0.44654,0.562264,0.680674,0.764416,0.79884,0.759289,0.616709,0.4336,0.333013,0.364019,0.350835,0.312261,0.24976,0.176272,0.200931,0.320073,0.440925,0.474617,0.410163,0.319097,0.329351,0.360845,0.396979,0.469734,0.52076,0.546151,0.561776,0.565682,0.563729,0.544442,0.548836,0.502693,0.358648,0.285649,0.370123,0.537362,0.726085,0.815198,0.789563,0.715099,0.606699,0.437507,0.304204,0.225101,0.163577,0.187015,0.214115,0.217533,0.277836,0.354009,0.385748,0.393561,0.440436,0.533455,0.606455,0.614267,0.611337,0.634043,0.667002,0.658701,0.620859,0.595468,0.526375,0.5149,0.553964,0.58912,0.563485,0.485359,0.406744,0.403326,0.446784,0.453132,0.436774,0.489265,0.558602,0.598154,0.568124,0.4878,0.372076,0.26978,0.189456,0.176028,0.254887,0.340581,0.40943,0.473152,0.554696,0.6692,0.714611,0.658213,0.571298,0.493172,0.402594,0.294194,0.295903,0.421637,0.580087,0.62208,0.571542,0.502449,0.449958,0.389166,0.26978,0.190188,0.140627,0.0983902,0.177493,0.350591,0.507088,0.574472,0.594003,0.629892,0.690196,0.738781,0.763439,0.733898,0.695567,0.663584,0.616709,0.581064,0.536141,
0.477546,0.473396,0.46949,0.468269,0.467292,0.466316,0.4607,0.458747,0.453376,0.441413,0.433112,0.428962,0.42945,0.435798,0.442145,0.448249,0.454597,0.456794,0.459724,0.463874,0.466316,0.467781,0.471931,0.477058,0.482673,0.488289,0.492195,0.489265,0.485359,0.486824,0.487312,0.480964,0.481453,0.477546,0.466804,0.466072,0.471443,0.479988,0.486824,0.486091,0.477546,0.468757,0.459236,0.452644,0.450935,0.448005,0.447272,0.447761,0.454353,0.457038,0.460212,0.466316,0.473884,0.477058,0.47657,0.461921,0.443366,0.452399,0.488533,0.521004,0.524178,0.499519,0.470466,0.461433,0.45948,0.465583,0.473152,0.480232,0.480232,0.46949,0.483894,0.482185,0.453132,0.44654,0.452155,0.465095,0.470954,0.472175,0.462165,0.439704,0.430426,0.436774,0.452155,0.469734,0.470954,0.449958,0.426276,0.425544,0.424811,0.419928,0.427985,0.436774,0.441657,0.44361,0.448249,0.460212,0.464118,0.455573,0.436774,0.442145,0.46656,0.489998,0.502693,0.51075,0.517342,0.518074,0.512215,0.504158,0.502693,0.501472,0.500008,0.497322,0.49781,0.498299,0.498787,0.499031,0.498543,0.495857,0.493172,0.491463,0.489509,0.487312,0.484871,0.482918,0.478767,0.474617,0.470954,0.465583,0.458991,0.453376,0.452888,0.452888,0.453376,0.454108,0.453376,0.45362,0.453132,0.454108,0.456794,0.460212,0.462654,0.466072,0.469978,0.474617,0.476326,0.479011,0.48072,0.48072,0.480476,0.483894,0.486336,0.486091,0.485603,0.487556,0.48658,0.486824,0.485603,0.48365,0.48072,0.475349,0.471687,0.469245,0.466316,0.462898,0.460456,0.457527,0.454353,0.455329,0.456306,0.454353,0.449714,0.448493,0.447517,0.44361,0.439704,0.439704,0.442878,0.445563,0.447761,0.453376,0.456062,0.457282,0.4607,0.464118,0.46656,0.469245,0.474617,0.478523,0.480232,0.48072,0.486336,0.488777,0.4878,0.488289,0.489509,0.489265,0.489998,0.488289,0.4878,0.483406,0.479744,0.476081,0.472908,0.468757,0.464851,0.461433,0.458015,0.451179,0.446784,0.444831,0.44361,0.43946,0.437751,0.437751,0.437751,0.438239,0.437995,0.439216,0.440925,0.445808,0.448493,0.452644,0.454841,0.456794,0.461189,0.466316,0.469001,0.475349,0.482429,0.485603,0.4878,0.49366,0.49659,0.496834,0.496834,0.498299,0.497078,0.497566,0.495857,0.495613,0.493416,0.489998,0.486336,0.482918,0.478035,0.474128,0.474861,0.474617,0.474372,0.471931,0.473396,0.474617,0.474128,0.475593,0.474861,0.471443,0.463386,0.45069,0.443366,0.442145,0.441413,0.440192,0.437507,0.43653,0.437263,0.441413,0.443854,0.44654,0.450935,0.454597,0.456306,0.458503,0.463874,0.467048,0.468757,0.472175,0.474617,0.475837,0.47779,0.47779,0.479011,0.474617,0.465095,0.458991,0.456794,0.457771,0.458991,0.458503,0.454353,0.450202,0.448493,0.44654,0.445319,0.443366,0.442878,0.442878,0.441901,0.441169,0.440436,0.440436,0.440436,0.441413,0.44654,0.455085,0.464607,0.473152,0.479988,0.484871,0.486824,0.48658,0.484871,0.484871,0.486336,0.489265,0.491707,0.491951,0.491463,0.492683,0.493904,0.495125,0.49366,0.494148,0.495125,0.495613,0.494148,0.492683,0.49073,0.488289,0.487312,0.484871,0.48072,0.478767,0.477302,0.474861,0.471931,0.470954,0.470222,0.470222,0.472419,0.471443,0.472419,0.473152,0.474128,0.474617,0.473884,0.474128,0.48365,0.491463,0.490974,0.491951,0.490974,0.489754,0.488533,0.486824,0.486336,0.486091,0.485603,0.485603,0.484871,0.484627,0.483894,0.481697,0.480964,0.478767,0.476814,0.475349,0.473396,0.470954,0.469001,0.468513,0.466316,0.464363,0.464118,0.461189,0.460212,0.458747,0.458991,0.458747,0.457038,0.456794,0.456306,0.457282,0.458747,0.460212,0.461921,0.462654,0.465095,0.46656,0.468269,0.468513,0.469245,0.469734,0.469001,0.469001,0.469245,0.470466,0.471443,0.471687,0.473396,0.474372,0.474128,0.475349,0.475593,0.475349,0.47364,0.471687,0.471199,0.469978,0.469245,0.468025,0.467781,0.466072,0.465339,0.466072,0.46656,0.466316,0.464607,0.464118,0.464851,0.468757,0.472419,0.472908,0.473884,0.474128,0.473396,0.47364,0.473396,0.471931,0.471931,0.472663,0.473152,0.474372,0.475593,0.475349,0.47657,0.477302,0.478279,0.479744,0.4795,0.479744,0.48072,0.481209,0.481941,0.479011,0.475837,0.472908,0.472175,0.472175,0.473152,0.471931,0.471687,0.471443,0.470466,0.469001,0.468757,0.468269,0.468269,0.467781,0.467781,0.467781,0.466072,0.465095,0.464851,0.464851,0.464851,0.464851,0.464607,0.465827,0.466804,0.468757,0.469734,0.470222,0.471931,0.473152,0.472908,0.472419,0.471687,0.474617,0.474617,0.475105,0.477058,0.47779,0.479011,0.480476,0.479988,0.479988,0.478767,0.478767,0.478767,0.47779,0.475837,0.474861,0.473884,0.473152,0.471687,0.471199,0.470222,0.469245,0.465827,0.466316,0.465827,0.464607,0.464363,0.46363,0.465095,0.466072,0.466316,0.466316,0.467048,0.468025,0.469734,0.470954,0.472663,0.475593,0.475837,0.477546,0.478035,0.479744,0.481697,0.482429,0.482918,0.482673,0.482429,0.481941,0.481941,0.481453,0.480476,0.478035,0.47657,0.474861,0.47364,0.47071,0.469734,0.467048,0.46363,0.462898,0.462165,0.461433,0.461189,0.458259,0.457527,0.456794,0.456062,0.45655,0.457282,0.457282,0.457771,0.458747,0.460212,0.460212,0.461921,0.462898,0.464607,0.465339,0.465583,0.468025,0.467048,0.468757,0.469001,0.471199,0.472419,0.472908,0.473884,0.474861,0.474617,0.475349,0.474617,0.475105,0.474128,0.474617,0.473152,0.471687,0.470954,0.469001,0.468513,0.466804,0.465583,0.465339,0.466316,0.465583,0.463386,0.462898,0.462654,0.461189,0.461433,0.461433,0.461921,0.462898,0.463874,0.464607,0.464607,0.464118,0.467048,0.468025,0.469001,0.470222,0.471443,0.471931,0.472175,0.471931,0.475349,0.475593,0.476081,0.477058,0.478035,0.478523,0.479744,0.479255,0.478767,0.477058,0.476814,0.476326,0.474617,0.472908,0.471443,0.47071,0.469001,0.46656,0.467536,0.466316,0.465095,0.463386,0.465095,0.464363,0.464851,0.464118,0.463386,0.463142,0.462898,0.463386,0.464607,0.465095,0.465339,0.466316,0.468025,0.46949,0.471199,0.472419,0.47364,0.473396,0.473396,0.475105,0.474861,0.475349,0.476081,0.476081,0.477546,0.478035,0.476326,0.476814,0.476326,0.476326,0.476326,0.475593,0.473884,0.472419,0.470954,0.468757,0.467048,0.468025,0.467536,0.466072,0.464607,0.46363,0.46363,0.463142,0.462654,0.461433,0.462898,0.461921,0.461921,0.462898,0.463142,0.464363,0.464851,0.466072,0.467536,0.468025,0.469245,0.46949,0.471443,0.473884,0.474861,0.475837,0.47657,0.47779,0.47779,0.478035,0.47779,0.478523,0.478523,0.477546,0.476814,0.47657,0.474617,0.473152,0.47071,0.468513,0.467048,0.465827,0.466804,0.46656,0.464851,0.463386,0.462898,0.462898,0.462409,0.462409,0.461433,0.461921,0.462654,0.462654,0.462898,0.463386,0.463874,0.465339,0.467048,0.467292,0.469001,0.470466,0.471443,0.472419,0.472908,0.474372,0.475349,0.475105,0.475349,0.476326,0.47779,0.477546,0.478279,0.47779,0.47657,0.474861,0.474617,0.473884,0.472663,0.471687,0.469734,0.467781,0.466316,0.465827,0.466804,0.465827,0.464363,0.465095,0.463386,0.463386,0.462898,0.462165,0.461433,0.461921,0.462898,0.464607,0.464363,0.464118,0.467048,0.468757,0.46949,0.470222,0.471931,0.472419,0.47364,0.47364,0.475593,0.476081,0.477058,0.477546,0.47779,0.47779,0.478035,0.47779,0.476814,0.47657,0.476326,0.474861,0.473884,0.471931,0.470954,0.46949,0.468025,0.466804,0.465583,0.465583,0.464363,0.464118,0.463386,0.463386,0.461921,0.461189,0.460945,0.461433,0.4607,0.460456,0.461921,0.463142,0.46363,0.465827,0.467048,0.467781,0.469001,0.470222,0.470954,0.47071,0.471687,0.473884,0.474617,0.475593,0.476081,0.476814,0.47779,0.477546,0.47779,0.477058,0.476814,0.475349,0.474861,0.473396,0.472175,0.470954,0.469001,0.468513,0.466804,0.466316,0.465583,0.463386,0.462898,0.462165,0.461921,0.460945,0.461189,0.461189,0.462165,0.462165,0.462409,0.463874,0.463874,0.464118,0.465827,0.467048,0.467048,0.469245,0.470222,0.471199,0.471687,0.473396,0.475593,0.476326,0.47657,0.477302,0.478035,0.478523,0.477546,0.477058,0.47657,0.475593,0.475593,0.474861,0.474128,0.472419,0.472663,0.471931,0.469001,0.468269,0.467781,0.467292,0.46656,0.468269,0.468513,0.469245,0.468269,0.467536,0.467048,0.468025,0.46949,0.473396,0.474128,0.471931,0.467781,0.465827,0.462654,0.458991,0.457282,0.457282,0.456794,0.457282,0.460212,0.465339,0.466804,0.467292,0.469001,0.469245,0.471931,0.474861,0.475837,0.477302,0.478523,0.479988,0.479988,0.478523,0.477546,0.47657,0.475105,0.472663,0.469978,0.46949,0.468513,0.465095,0.465095,0.467048,0.468757,0.46949,0.468757,0.467048,0.46656,0.466072,0.466804,0.466804,0.466804,0.468025,0.467536,0.46949,0.469978,0.471443,0.472908,0.473396,0.473884,0.474617,0.475593,0.475593,0.475593,0.475837,0.476814,0.477058,0.477058,0.476814,0.47657,0.474617,0.473884,0.472908,0.472908,0.472663,0.471931,0.47071,0.468757,0.468025,0.466804,0.467048,0.464851,0.464607,0.464118,0.46363,0.463874,0.462409,0.462898,0.462654,0.462898,0.462165,0.462898,0.463142,0.464118,0.465583,0.468025,0.469001,0.472175,0.472663,0.473152,0.472908,0.474617,0.475349,0.475349,0.475349,0.476081,0.475837,0.476814,0.475837,0.476326,0.475349,0.47364,0.472419,0.472419,0.470466,0.469001,0.468513,0.467536,0.467292,0.467048,0.466072,0.466316,0.464607,0.463386,0.462898,0.463874,0.463142,0.462654,0.462409,0.463142,0.463386,0.464118,0.464118,0.465583,0.467048,0.468757,0.46949,0.47071,0.472908,0.474861,0.474861,0.474372,0.476081,0.47657,0.476326,0.474372,0.475105,0.47657,0.479255,0.478767,0.479011,0.477546,0.476814,0.475105,0.473884,0.472175,0.469978,
0.477058,0.476081,0.473152,0.471931,0.468025,0.464851,0.461921,0.459968,0.458747,0.458015,0.458747,0.457771,0.457527,0.458503,0.458015,0.458259,0.459236,0.458503,0.460212,0.464118,0.467048,0.469978,0.471199,0.472175,0.472663,0.473152,0.475593,0.475837,0.476081,0.47657,0.477546,0.47657,0.477058,0.476814,0.475837,0.474617,0.474128,0.472908,0.472175,0.470954,0.46949,0.468757,0.467781,0.467048,0.466316,0.466316,0.464851,0.464118,0.464118,0.46363,0.46363,0.463874,0.462654,0.46363,0.463142,0.46363,0.464851,0.465827,0.466804,0.468025,0.469978,0.469978,0.471443,0.471931,0.472419,0.472175,0.472175,0.474861,0.475837,0.477058,0.477546,0.478035,0.47779,0.477058,0.477546,0.478523,0.478523,0.478767,0.477546,0.476326,0.473152,0.471687,0.472419,0.470954,0.468025,0.465827,0.464851,0.463386,0.461677,0.462165,0.460945,0.45948,0.458503,0.455818,0.456062,0.457038,0.459236,0.459236,0.458991,0.463874,0.473396,0.481453,0.489509,0.491707,0.489998,0.486091,0.478523,0.472908,0.469734,0.466804,0.463142,0.460456,0.460212,0.458747,0.457527,0.458747,0.461433,0.465583,0.469245,0.474372,0.477058,0.47779,0.4795,0.478523,0.475593,0.472419,0.469001,0.468269,0.466316,0.464118,0.462654,0.462654,0.463142,0.462898,0.461677,0.460945,0.461677,0.462165,0.464363,0.467536,0.473152,0.478035,0.482673,0.488289,0.491218,0.491707,0.489021,0.483894,0.478767,0.473152,0.469734,0.468757,0.468269,0.467536,0.465095,0.464363,0.46363,0.464607,0.46949,0.47364,0.475349,0.47779,0.480476,0.481697,0.480232,0.47779,0.482185,0.502205,0.525643,0.538338,0.542,0.532967,0.518318,0.495613,0.466072,0.43946,0.418952,0.404303,0.396735,0.386725,0.377935,0.374029,0.377935,0.383795,0.39234,0.407721,0.428717,0.446296,0.458991,0.471199,0.486336,0.496101,0.505135,0.511482,0.515145,0.514168,0.512947,0.508553,0.504646,0.500252,0.494881,0.49366,0.494636,0.491463,0.488045,0.481209,0.474128,0.466804,0.462898,0.461189,0.459968,0.45948,0.45948,0.45948,0.460456,0.459968,0.457282,0.456062,0.456062,0.459236,0.469734,0.4795,0.485847,0.489021,0.489754,0.485847,0.481941,0.476081,0.47071,0.469001,0.468513,0.469978,0.468757,0.468513,0.468025,0.467292,0.468513,0.469001,0.470466,0.472908,0.472908,0.474861,0.475593,0.475837,0.475105,0.473884,0.472908,0.471931,0.471931,0.472175,0.471931,0.469734,0.468513,0.467781,0.467536,0.468269,0.468025,0.468269,0.47071,0.471687,0.472175,0.471687,0.469978,0.469978,0.47071,0.46949,0.469001,0.470466,0.469734,0.471687,0.476326,0.48072,0.484871,0.484382,0.48365,0.479744,0.471931,0.466072,0.461189,0.458747,0.460212,0.463386,0.469978,0.478523,0.488045,0.494636,0.491951,0.483406,0.474861,0.467292,0.460212,0.453864,0.44654,0.440681,0.437751,0.434821,0.433845,0.435554,0.437995,0.443854,0.449958,0.460212,0.472419,0.485115,0.509773,0.528573,0.538827,0.548348,0.567636,0.570809,0.548836,0.51075,0.475837,0.450202,0.434089,0.417487,0.408453,0.402594,0.396002,0.389899,0.37818,0.376471,0.402838,0.44239,0.47779,0.502937,0.521492,0.526864,0.520272,0.507332,0.495857,0.484138,0.472663,0.459968,0.445075,0.43653,0.437507,0.446296,0.46656,0.488045,0.51075,0.531502,0.540047,0.538827,0.528817,0.508064,0.489754,0.472419,0.456306,0.439704,0.418463,0.39942,0.39649,0.401617,0.406256,0.409674,0.416999,0.424567,0.441413,0.468025,0.507088,0.55079,0.611337,0.665049,0.680186,0.650889,0.596933,0.533455,0.471931,0.416999,0.371344,0.327398,0.292729,0.285649,0.281987,0.265629,0.278325,0.318364,0.366217,0.41236,0.441169,0.457527,0.476814,0.496345,0.515389,0.535409,0.551034,0.554452,0.551034,0.546639,0.538338,0.53077,0.518807,0.508064,0.498299,0.491707,0.488045,0.487312,0.489509,0.488777,0.486091,0.48072,0.472663,0.466316,0.465095,0.472663,0.481941,0.494636,0.502693,0.503182,0.497078,0.491463,0.487068,0.482429,0.4795,0.476814,0.472663,0.462409,0.445563,0.427008,0.417731,0.417975,0.42237,0.431891,0.442145,0.44947,0.455085,0.461433,0.470222,0.48365,0.491463,0.494881,0.493416,0.495125,0.508553,0.517586,0.531746,0.559091,0.580331,0.587655,0.576913,0.548592,0.519783,0.502205,0.489509,0.467536,0.433845,0.424079,0.437995,0.439704,0.420417,0.401373,0.391852,0.390875,0.404547,0.410895,0.400641,0.38526,0.36817,0.336431,0.327398,0.345708,0.390387,0.442634,0.484627,0.520027,0.539559,0.537118,0.523445,0.505623,0.485603,0.471687,0.461677,0.461677,0.468513,0.463386,0.456062,0.454353,0.45655,0.464607,0.471443,0.476326,0.482918,0.489265,0.495125,0.493172,0.488533,0.505379,0.522225,0.527352,0.529305,0.543221,0.551034,0.555673,0.568612,0.571542,0.547616,0.500496,0.449226,0.403326,0.36939,0.36817,0.427741,0.50782,0.555673,0.578622,0.591562,0.578378,0.542,0.49659,0.442878,0.387213,0.32813,0.266117,0.224613,0.220218,0.244633,0.281987,0.326177,0.381109,0.434821,0.479255,0.512703,0.540047,0.558114,0.566415,0.561776,0.547372,0.533455,0.524666,0.515877,0.497322,0.483894,0.477546,0.474372,0.474617,0.475349,0.475837,0.475837,0.480232,0.485847,0.488045,0.490242,0.488045,0.482429,0.481209,0.485603,0.492683,0.50367,0.52491,0.54078,0.539315,0.52491,0.503426,0.480964,0.460945,0.442878,0.42945,0.421393,0.416266,0.408942,0.408698,0.424811,0.440925,0.458991,0.474861,0.48365,0.482429,0.480232,0.482673,0.4878,0.490486,0.488045,0.484871,0.480232,0.479011,0.478767,0.480476,0.479011,0.473152,0.469734,0.466316,0.463386,0.46363,0.465095,0.465095,0.45948,0.457038,0.459724,0.461921,0.465827,0.474128,0.486336,0.499519,0.501228,0.494881,0.485359,0.478767,0.4795,0.482429,0.485115,0.484871,0.479744,0.469978,0.467048,0.47071,0.469978,0.466316,0.458503,0.450935,0.444099,0.441657,0.442634,0.448249,0.456306,0.457771,0.454108,0.449226,0.445563,0.450446,0.455085,0.4607,0.464607,0.469245,0.473884,0.474861,0.4795,0.484138,0.475105,0.471199,0.473152,0.471687,0.474128,0.484382,0.494148,0.500252,0.505135,0.507088,0.506844,0.50367,0.491951,0.46949,0.447272,0.435554,0.435309,0.450446,0.471687,0.487068,0.486336,0.470466,0.460212,0.467048,0.498543,0.541268,0.581552,0.600595,0.59791,0.572519,0.536873,0.512459,0.482918,0.426032,0.370611,0.324468,0.28394,0.253666,0.254154,0.300053,0.377935,0.445563,0.482673,0.497566,0.502205,0.509773,0.498787,0.479744,0.468513,0.46949,0.44947,0.411383,0.383795,0.39649,0.42945,0.484871,0.533944,0.538338,0.516121,0.493416,0.477058,0.46656,0.450446,0.44361,0.442878,0.44947,0.458259,0.480232,0.521736,0.560067,0.571298,0.553964,0.509285,0.45655,0.431159,0.421881,0.417243,0.417975,0.434333,0.456306,0.468025,0.472175,0.486091,0.52076,0.551766,0.562264,0.562753,0.550057,0.529305,0.500252,0.454108,0.403082,0.384771,0.398688,0.416022,0.423835,0.450446,0.494392,0.552255,0.597421,0.602792,0.608164,0.620859,0.606699,0.586191,0.568856,0.550057,0.52076,0.469978,0.422126,0.368658,0.303471,0.263188,0.265385,0.292485,0.297612,0.286137,0.297856,0.333989,0.385992,0.456306,0.530037,0.558114,0.54078,0.522469,0.504646,0.504891,0.504646,0.499275,0.485603,0.46363,0.458747,0.445319,0.409186,0.401862,0.439216,0.484871,0.522957,0.56495,0.617441,0.639658,0.625254,0.600107,0.574472,0.551522,0.538338,0.512459,0.472908,0.428473,0.399176,0.368414,0.339849,0.308598,0.284672,0.280766,0.310796,0.360113,0.410651,0.444587,0.47364,0.497078,0.507088,0.497322,0.49659,0.510262,0.541268,0.56788,0.560311,0.529061,0.509773,0.516121,0.525399,0.52369,0.519539,0.510262,0.478767,0.440436,0.395026,0.380621,0.395514,0.410895,0.425055,0.446296,0.461677,0.502693,0.534432,0.53785,0.520516,0.49073,0.465095,0.454108,0.435554,0.400153,0.375982,0.393561,0.438483,0.482673,0.521981,0.540047,0.521492,0.492683,0.466804,0.448005,0.462898,0.5337,0.624033,0.678965,0.692638,0.672618,0.638193,0.591073,0.524666,0.45069,0.375006,0.271733,0.169924,0.134035,0.167727,0.222416,0.282963,0.341802,0.382086,0.427985,0.489754,0.546883,0.585458,0.615488,0.653574,0.736339,0.788586,0.776379,0.72462,0.642588,0.548348,0.449958,0.361578,0.295171,0.249271,0.232425,0.27393,0.324956,0.354742,0.383551,0.410407,0.440925,0.483894,0.525887,0.53492,0.552987,0.552987,0.52784,0.500252,0.484382,0.494392,0.496345,0.467048,0.417243,0.365484,0.334966,0.336187,0.350347,0.399908,0.480232,0.551522,0.565194,0.532235,0.525643,0.566903,0.623789,0.654551,0.639902,0.577157,0.486824,0.445319,0.498054,0.543954,0.512215,0.443854,0.361578,0.296147,0.242191,0.206302,0.254643,0.337652,0.397955,0.439948,0.463874,0.481209,0.50367,0.517586,0.522957,0.496101,0.448737,0.41944,0.39527,0.393072,0.425788,0.477058,0.514168,0.534432,0.563241,0.580575,0.610605,0.644785,0.660655,0.680919,0.761975,0.830335,0.809583,0.71754,0.561044,0.391608,0.252689,0.152834,0.139895,0.168215,0.196536,0.243412,0.261967,0.245853,0.263676,0.332036,0.437018,0.542245,0.601816,0.617685,0.598642,0.553719,0.510506,0.543954,0.630137,0.674815,0.685801,0.684092,0.687266,0.664805,0.613291,0.543709,0.438972,0.348394,0.329351,0.31397,0.266606,0.20972,0.143313,0.155276,0.253666,0.406744,0.521492,0.569345,0.611582,0.659678,0.719005,0.736584,0.698497,0.677256,0.640635,0.521492,0.351812,0.253422,0.245609,0.297124,0.340093,0.322759,0.25684,0.170169,0.171389,0.264897,0.313725,0.326177,0.344732,0.383551,0.416266,0.507576,0.607919,0.663828,0.693614,0.738537,0.773449,0.771496,0.773449,0.806897,0.786877,0.645029,0.432136,0.224613,0.086183,0.0498054,0.0969253,0.150637,0.170413,0.261479,0.415045,0.518563,0.528084,0.509041,
0.465827,0.474861,0.467536,0.40235,0.331792,0.330571,0.375738,0.355718,0.344488,0.364752,0.382086,0.357916,0.341314,0.342779,0.338872,0.337896,0.350835,0.44654,0.556649,0.633066,0.719249,0.853773,0.939956,0.9402,0.906508,0.865492,0.758801,0.608408,0.477546,0.373541,0.300542,0.225345,0.0915541,0.028809,0.0285649,0.0412604,0.0996109,0.220462,0.368414,0.485359,0.549325,0.556893,0.591073,0.647471,0.68922,0.68751,0.650401,0.643076,0.707286,0.756115,0.708995,0.593515,0.44654,0.355474,0.276616,0.218265,0.2168,0.207279,0.177493,0.19678,0.242435,0.313237,0.412848,0.507088,0.570565,0.60499,0.618173,0.663828,0.719738,0.720714,0.676768,0.610605,0.53077,0.444343,0.380133,0.364019,0.351812,0.336919,0.419928,0.561044,0.682383,0.742199,0.779065,0.77882,0.806409,0.885756,0.900649,0.819837,0.679942,0.433845,0.195804,0.0722667,0.000732433,0.000244144,0.000488289,0.000244144,0,0,0.112551,0.333257,0.526131,0.609628,0.610117,0.56495,0.552987,0.582773,0.57203,0.518318,0.517098,0.627207,0.757336,0.819348,0.84596,0.852796,0.833509,0.72462,0.556649,0.424323,0.364752,0.381109,0.473396,0.625742,0.709972,0.688975,0.499519,0.222904,0.0607919,0,0,0,0.0383307,0.116457,0.178714,0.22388,0.291264,0.410163,0.55787,0.656016,0.663096,0.671153,0.69044,0.693858,0.654063,0.628916,0.658213,0.668467,0.621592,0.516121,0.422126,0.37818,0.398444,0.429938,0.440192,0.495369,0.529061,0.489265,0.451179,0.398199,0.387213,0.437751,0.468025,0.484627,0.478767,0.41944,0.326909,0.295171,0.35108,0.409918,0.393561,0.361822,0.381109,0.489021,0.597177,0.635752,0.646738,0.659434,0.651865,0.645029,0.692882,0.776379,0.844739,0.819837,0.677989,0.510018,0.465339,0.468757,0.394537,0.283207,0.148928,0.0217288,0.000488289,0.0180667,0.0908217,0.157961,0.190677,0.22266,0.270756,0.375738,0.516854,0.654063,0.695567,0.670909,0.64625,0.630625,0.60914,0.559823,0.542489,0.552743,0.561044,0.603769,0.668223,0.737316,0.737804,0.650156,0.547127,0.486336,0.43946,0.401617,0.396735,0.390875,0.351568,0.320806,0.356939,0.472908,0.570077,0.652598,0.713146,0.690929,0.600839,0.485115,0.378668,0.307866,0.228763,0.111574,0.0234379,0.0615244,0.246098,0.456306,0.585702,0.664561,0.704112,0.675303,0.582773,0.476081,0.38526,0.322759,0.300053,0.305669,0.369879,0.464118,0.499763,0.530282,0.572519,0.542245,0.448249,0.377691,0.367437,0.401862,0.408209,0.408209,0.413581,0.421393,0.459236,0.50782,0.545418,0.568856,0.568612,0.525154,0.471687,0.448981,0.507332,0.643076,0.7776,0.929702,0.941421,0.920912,0.89015,0.862318,0.731456,0.475593,0.204105,0.0249027,0,0,0.145754,0.396002,0.558114,0.562753,0.5608,0.572763,0.546639,0.452644,0.306401,0.18677,0.173098,0.234867,0.242435,0.178958,0.128176,0.141604,0.202396,0.320562,0.472419,0.570077,0.607431,0.714366,0.8047,0.739025,0.64918,0.612558,0.596445,0.546639,0.468757,0.422858,0.356695,0.334234,0.433112,0.606699,0.73341,0.79469,0.824231,0.864759,0.865492,0.78883,0.667002,0.529061,0.413581,0.349859,0.28394,0.238529,0.190921,0.10425,0.0468757,0.0568856,0.0844739,0.0852064,0.0712902,0.0800793,0.231937,0.411383,0.587655,0.764416,0.884047,0.939956,0.9402,0.939712,0.801038,0.597177,0.429694,0.290532,0.135744,0.0358892,0,0.000244144,0.107424,0.259525,0.352789,0.406012,0.47657,0.520027,0.519539,0.531014,0.541024,0.551278,0.595224,0.637705,0.716564,0.819348,0.9402,0.940444,0.940688,0.940444,0.805921,0.628183,0.498299,0.390387,0.295903,0.24683,0.19263,0.135256,0.199466,0.298833,0.376226,0.413336,0.427741,0.357427,0.320806,0.39527,0.463874,0.449958,0.404547,0.389166,0.353521,0.294194,0.267094,0.344244,0.438239,0.474372,0.454597,0.437751,0.471931,0.559823,0.669932,0.755871,0.772717,0.717784,0.667247,0.644297,0.64332,0.595712,0.484627,0.386481,0.407965,0.48072,0.498543,0.41529,0.255131,0.182864,0.216312,0.278325,0.374273,0.462165,0.509773,0.51075,0.514412,0.502693,0.494392,0.559091,0.658946,0.678965,0.632822,0.534676,0.445563,0.431647,0.504158,0.530037,0.443854,0.329351,0.285161,0.33521,0.412848,0.45948,0.461433,0.476081,0.480476,0.458503,0.435309,0.369879,0.287358,0.267094,0.27393,0.269535,0.309087,0.386725,0.489265,0.593515,0.630137,0.653574,0.712413,0.740246,0.68336,0.581064,0.47779,0.519539,0.628183,0.663584,0.656016,0.642832,0.603037,0.538338,0.455329,0.340337,0.267582,0.197513,0.134035,0.223148,0.384039,0.511971,0.542489,0.521004,0.522957,0.52076,0.490486,0.488777,0.508553,0.475837,0.416999,0.448493,0.546395,0.613779,0.603281,0.505379,0.365972,0.216068,0.0712902,0.000244144,0.0214847,0.106691,0.192874,0.314458,0.4795,0.626719,0.689708,0.668711,0.610849,0.594736,0.631846,0.675547,0.69752,0.738781,0.790051,0.823255,0.857679,0.917006,0.910414,0.838148,0.751965,0.628183,0.481453,0.300053,0.125246,0.000488289,0.000488289,0,0.000244144,0,0.13257,0.312016,0.428229,0.47779,0.506111,0.509041,0.526131,0.561288,0.644785,0.704112,0.695811,0.698741,0.729747,0.726818,0.666514,0.567391,0.48072,0.475837,0.526619,0.570809,0.579355,0.52784,0.469978,0.454841,0.458015,0.478523,0.430671,0.319341,0.174563,0.0905776,0.0942397,0.136233,0.179446,0.206302,0.266361,0.341802,0.435798,0.542977,0.66334,0.728527,0.698985,0.654307,0.679454,0.75758,0.790539,0.747326,0.616464,0.438972,0.35108,0.370123,0.390875,0.327398,0.263676,0.240482,0.23682,0.288823,0.366949,0.489509,0.636728,0.767102,0.854017,0.868421,0.817151,0.715831,0.563485,0.388922,0.291264,0.287358,0.329351,0.372808,0.413336,0.508064,0.57789,0.528084,0.489754,0.484138,0.419196,0.309331,0.16968,0.094728,0.150637,0.299321,0.431403,0.492683,0.561044,0.669688,0.738293,0.688975,0.576669,0.404059,0.241215,0.170657,0.129152,0.208011,0.442878,0.679454,0.812268,0.841321,0.81178,0.709239,0.570809,0.421881,0.288334,0.193362,0.176761,0.229496,0.34522,0.455085,0.48072,0.495125,0.566415,0.621347,0.616464,0.58497,0.548348,0.507576,0.498299,0.497078,0.462409,0.445563,0.456306,0.452399,0.38941,0.343511,0.393561,0.521004,0.581064,0.537118,0.434821,0.392828,0.496834,0.583261,0.578378,0.495613,0.417731,0.431403,0.501472,0.555917,0.559335,0.554452,0.508797,0.425055,0.366705,0.334722,0.331792,0.289067,0.207767,0.169924,0.188968,0.247318,0.347173,0.416266,0.493172,0.604746,0.721202,0.791272,0.792004,0.758068,0.717052,0.664805,0.57911,0.507088,0.467048,0.425299,0.412848,0.448493,0.515389,0.532723,0.496345,0.471931,0.464363,0.482918,0.419196,0.309575,0.241459,0.202884,0.239017,0.349126,0.450446,0.518563,0.55201,0.540047,0.585458,0.644297,0.619883,0.539559,0.455085,0.384527,0.361578,0.419196,0.487068,0.506844,0.445319,0.333745,0.295171,0.330083,0.353521,0.347906,0.33521,0.354986,0.424079,0.506111,0.562509,0.56495,0.546151,0.530037,0.524422,0.527352,0.5149,0.508553,0.518807,0.550301,0.565682,0.576181,0.59913,0.628916,0.708507,0.787366,0.812757,0.756115,0.672374,0.583505,0.512459,0.439216,0.314946,0.181643,0.0668956,0.0532235,0.117189,0.20557,0.301274,0.43653,0.556161,0.609873,0.629648,0.637217,0.614755,0.55494,0.492195,0.470954,0.446296,0.384039,0.294926,0.249027,0.294682,0.405524,0.508064,0.560067,0.572274,0.543954,0.501961,0.474372,0.474861,0.504158,0.474128,0.396735,0.362799,0.391852,0.406744,0.38941,0.382574,0.472908,0.570565,0.600839,0.613779,0.624521,0.63209,0.607919,0.588632,0.606699,0.598398,0.538338,0.464118,0.406256,0.314214,0.247562,0.244388,0.290043,0.3794,0.42652,0.42945,0.418219,0.390631,0.364996,0.386725,0.417243,0.441413,0.475837,0.524178,0.55787,0.571786,0.578378,0.579599,0.587167,0.595224,0.578134,0.528084,0.484871,0.478035,0.499763,0.488533,0.474128,0.502693,0.555917,0.573495,0.565927,0.566415,0.524666,0.434821,0.347173,0.317144,0.357671,0.476326,0.601083,0.640146,0.656504,0.669932,0.660166,0.581308,0.451179,0.361334,0.283696,0.173342,0.0798352,0.0546883,0.145754,0.25977,0.326177,0.347906,0.347173,0.318608,0.286381,0.29102,0.306157,0.31104,0.347906,0.440436,0.544198,0.605234,0.632822,0.645762,0.655772,0.659922,0.653574,0.637217,0.623056,0.614511,0.614511,0.616953,0.614023,0.602304,0.583505,0.559579,0.528817,0.510994,0.502205,0.483162,0.456062,0.434577,0.425055,0.423102,0.430671,0.435554,0.434577,0.431403,0.427497,0.42652,0.427985,0.427741,0.428717,0.432624,0.438239,0.44361,0.44947,0.454841,0.462165,0.471687,0.48365,0.494636,0.5066,0.5149,0.516121,0.507332,0.496345,0.494148,0.502205,0.514168,0.520027,0.526375,0.531014,0.531502,0.524178,0.502937,0.461189,0.427253,0.417975,0.421881,0.434821,0.448493,0.455085,0.454597,0.441169,0.420417,0.412116,0.41529,0.424811,0.427253,0.421393,0.416022,0.417243,0.423835,0.430182,0.432624,0.436042,0.446052,0.458503,0.471199,0.482918,0.490486,0.494881,0.498299,0.507576,0.513924,0.516609,0.517342,0.520027,0.52369,0.529549,0.531258,0.529549,0.524666,0.51783,0.512459,0.500984,0.484871,0.474861,0.469978,0.463386,0.454353,0.448249,0.44361,0.437751,0.428962,0.424079,0.422614,0.420172,0.411383,0.405035,0.406012,0.410651,0.417243,0.425055,0.431647,0.437995,0.450446,0.472908,0.494636,0.510994,0.522225,0.522225,0.508064,0.489265,0.475349,0.453132,0.446784,0.461921,0.480476,0.494148,0.507576,0.515389,0.52076,0.522713,0.521981,0.521492,0.519051,0.512703,0.502205,0.491463,0.481697,0.474861,0.46949,0.451179,0.436286,0.4336,0.438483,0.437507,0.427985,0.41651,0.407233,0.408453,0.411383,0.416022,0.420905,0.425788,0.430426,0.437507,0.447272,0.455818,
0.477058,0.478035,0.479255,0.4795,0.479011,0.481453,0.483162,0.483894,0.485115,0.484382,0.484138,0.48365,0.482673,0.481209,0.479255,0.478523,0.476326,0.476326,0.474861,0.471931,0.47071,0.468757,0.466072,0.463874,0.463142,0.462898,0.459968,0.45948,0.458503,0.458259,0.458259,0.459724,0.457771,0.458991,0.459724,0.4607,0.461433,0.462409,0.46363,0.465095,0.466072,0.466804,0.469245,0.468757,0.468025,0.468269,0.470466,0.472663,0.472663,0.472419,0.472908,0.472908,0.473152,0.473152,0.473152,0.47071,0.469734,0.469001,0.468513,0.467292,0.465339,0.465339,0.464118,0.462654,0.461433,0.461677,0.462409,0.460456,0.459968,0.459724,0.460945,0.462654,0.462654,0.462409,0.464118,0.464607,0.46656,0.467781,0.469001,0.471199,0.472663,0.474128,0.474128,0.476814,0.477302,0.476326,0.475837,0.475837,0.477546,0.47779,0.477302,0.477302,0.477058,0.477058,0.476081,0.475105,0.47364,0.472419,0.471199,0.470222,0.467292,0.465095,0.463874,0.463874,0.461677,0.460945,0.4607,0.460945,0.459724,0.45948,0.460456,0.460456,0.461677,0.462409,0.461921,0.463142,0.465827,0.46656,0.469001,0.469245,0.471199,0.472419,0.47364,0.475105,0.47779,0.479255,0.479011,0.479011,0.479255,0.480476,0.480232,0.480476,0.479988,0.478523,0.479011,0.477546,0.477546,0.475837,0.473884,0.472663,0.47071,0.468757,0.465583,0.464363,0.462165,0.4607,0.460945,0.460212,0.461189,0.459236,0.460212,0.459968,0.459968,0.459968,0.4607,0.461189,0.463386,0.464118,0.465095,0.467048,0.468025,0.469734,0.472419,0.473396,0.474617,0.475349,0.475837,0.476326,0.476814,0.477058,0.478523,0.477058,0.476814,0.47657,0.475837,0.476081,0.474861,0.473396,0.472175,0.471443,0.47071,0.469001,0.467292,0.465827,0.466316,0.465095,0.46363,0.463874,0.465095,0.466072,0.463874,0.462654,0.462898,0.462654,0.463142,0.463142,0.462898,0.462898,0.464363,0.465339,0.465827,0.467292,0.469245,0.470954,0.472908,0.472908,0.474861,0.475593,0.476081,0.476081,0.477058,0.477546,0.478035,0.477546,0.477058,0.477302,0.47779,0.476326,0.476081,0.474861,0.472663,0.47071,0.469978,0.468757,0.465583,0.464118,0.462654,0.460456,0.460456,0.462654,0.461921,0.459724,0.45948,0.460456,0.4607,0.460212,0.460456,0.461921,0.462165,0.463386,0.465827,0.468025,0.469245,0.47071,0.471687,0.472908,0.473152,0.475593,0.476326,0.476814,0.476326,0.477058,0.478279,0.478279,0.47779,0.4795,0.476814,0.47779,0.475593,0.474372,0.472419,0.470466,0.470954,0.469001,0.466316,0.464607,0.463874,0.462165,0.460456,0.459968,0.4607,0.460456,0.458503,0.458991,0.45948,0.458747,0.459724,0.460456,0.460456,0.461921,0.462898,0.465339,0.467048,0.468757,0.470954,0.472419,0.47364,0.474861,0.476814,0.478279,0.477546,0.478035,0.478767,0.4795,0.478523,0.478767,0.478279,0.477546,0.477546,0.476326,0.475349,0.473884,0.471931,0.469978,0.468513,0.466804,0.465827,0.465095,0.462654,0.461677,0.461433,0.461921,0.462898,0.459968,0.459236,0.45948,0.460456,0.461677,0.464118,0.463874,0.464607,0.465339,0.467292,0.46949,0.469734,0.47071,0.472419,0.472908,0.473884,0.475593,0.476814,0.47657,0.47657,0.478523,0.479744,0.478767,0.479011,0.479255,0.478767,0.479744,0.478523,0.477302,0.476081,0.473396,0.471687,0.469978,0.468513,0.466804,0.466072,0.46363,0.462654,0.461921,0.461677,0.461189,0.459724,0.460212,0.460456,0.460212,0.461189,0.461433,0.462654,0.463142,0.465095,0.466072,0.467781,0.469001,0.47071,0.472908,0.47364,0.475349,0.477058,0.477546,0.478523,0.478767,0.479744,0.480964,0.48072,0.480476,0.480476,0.479744,0.479255,0.478035,0.476814,0.475349,0.474128,0.472175,0.471687,0.468757,0.46656,0.465095,0.46363,0.461921,0.462165,0.462165,0.461921,0.461921,0.462409,0.463874,0.462898,0.463386,0.463142,0.464118,0.465339,0.465583,0.467536,0.470954,0.472663,0.473396,0.475837,0.477058,0.478523,0.480232,0.48072,0.480476,0.48072,0.484138,0.485359,0.484627,0.484138,0.483894,0.482673,0.482429,0.480964,0.479255,0.47779,0.476081,0.474617,0.471443,0.469001,0.467048,0.464607,0.461433,0.460212,0.458259,0.458259,0.457771,0.456306,0.456062,0.455573,0.455329,0.456306,0.456062,0.457527,0.459236,0.4607,0.463142,0.464118,0.467048,0.467292,0.470466,0.471199,0.472175,0.474861,0.476081,0.476814,0.476081,0.476814,0.477546,0.477302,0.476814,0.478035,0.478035,0.477546,0.477302,0.475593,0.473396,0.471687,0.470222,0.468513,0.465583,0.464118,0.462654,0.461189,0.458991,0.459968,0.460945,0.460945,0.458991,0.459968,0.4607,0.461677,0.464118,0.467536,0.470466,0.472175,0.472175,0.472663,0.470954,0.470466,0.469978,0.470222,0.469978,0.47071,0.472175,0.473152,0.471687,0.470954,0.473884,0.474617,0.476326,0.476326,0.47657,0.47779,0.480232,0.481209,0.481697,0.4795,0.476814,0.47657,0.474617,0.471199,0.468757,0.467292,0.464118,0.462409,0.461921,0.462898,0.462654,0.460945,0.462165,0.462409,0.462409,0.462654,0.462409,0.462409,0.464118,0.465583,0.467292,0.469734,0.471443,0.474617,0.47779,0.479744,0.481697,0.482429,0.481453,0.480476,0.479744,0.481209,0.481453,0.479988,0.480476,0.481209,0.480964,0.4795,0.478279,0.477058,0.475349,0.472908,0.471443,0.469001,0.467292,0.466316,0.464607,0.462654,0.460945,0.460945,0.4607,0.45948,0.457527,0.458259,0.458747,0.458015,0.459236,0.458991,0.460456,0.461921,0.462898,0.465095,0.467781,0.470466,0.47364,0.475349,0.476081,0.476814,0.478279,0.477302,0.47657,0.475837,0.477302,0.478523,0.477546,0.47779,0.475837,0.475349,0.474372,0.472419,0.471443,0.469978,0.468513,0.468269,0.467048,0.466072,0.466072,0.466072,0.463386,0.462165,0.461921,0.460945,0.460212,0.458015,0.457527,0.457527,0.457527,0.459236,0.458503,0.459968,0.460212,0.462165,0.464363,0.466316,0.467536,0.470954,0.472908,0.475593,0.47779,0.479744,0.481209,0.48072,0.481209,0.482673,0.482673,0.482185,0.480964,0.480964,0.480232,0.479988,0.479011,0.477302,0.474861,0.472908,0.471931,0.469978,0.467048,0.465339,0.463386,0.461189,0.460456,0.4607,0.461921,0.461189,0.460456,0.4607,0.460456,0.460945,0.462654,0.461677,0.462165,0.463874,0.465827,0.466804,0.469001,0.469245,0.471931,0.472908,0.474372,0.47657,0.478035,0.478523,0.478035,0.478523,0.480476,0.480476,0.480476,0.480476,0.480476,0.4795,0.479988,0.478035,0.477058,0.474617,0.472908,0.472663,0.469734,0.466804,0.466316,0.464363,0.462165,0.460212,0.459724,0.460212,0.45948,0.457282,0.457771,0.457771,0.458015,0.459236,0.459236,0.461189,0.462654,0.464607,0.465827,0.467536,0.469001,0.471443,0.47364,0.475105,0.477058,0.479011,0.478523,0.47779,0.479744,0.482429,0.482429,0.481453,0.481453,0.480476,0.480232,0.478523,0.47657,0.475105,0.472908,0.46949,0.469001,0.467781,0.465583,0.467536,0.468513,0.467292,0.464851,0.462654,0.460456,0.456794,0.453864,0.454108,0.453376,0.45362,0.456306,0.459236,0.462898,0.465583,0.467048,0.467048,0.468269,0.469978,0.471931,0.474372,0.475837,0.47657,0.477302,0.475837,0.476081,0.475837,0.479744,0.482918,0.485359,0.48658,0.485603,0.484627,0.484627,0.484871,0.484138,0.480232,0.478035,0.476326,0.472175,0.468513,0.464363,0.459236,0.455085,0.452155,0.449714,0.449226,0.446784,0.446296,0.447517,0.446296,0.44654,0.448981,0.452888,0.457527,0.461189,0.465095,0.468513,0.46949,0.471687,0.474617,0.476814,0.478523,0.480476,0.48365,0.483894,0.483406,0.484138,0.485847,0.485359,0.484871,0.48365,0.483894,0.482429,0.482918,0.48072,0.4795,0.47657,0.474861,0.472419,0.469734,0.465827,0.465095,0.462654,0.459724,0.459236,0.459724,0.45948,0.457038,0.456794,0.457282,0.458259,0.459236,0.460212,0.460456,0.462409,0.463874,0.465339,0.467048,0.469978,0.470954,0.472908,0.474861,0.475349,0.476814,0.4795,0.4795,0.4795,0.479744,0.481697,0.481697,0.481453,0.480964,0.48072,0.479744,0.479011,0.47779,0.47657,0.473884,0.472175,0.470222,0.468269,0.464851,0.464607,0.464118,0.464118,0.461921,0.461433,0.462165,0.460212,0.458747,0.458991,0.458991,0.457038,0.457282,0.458015,0.460212,0.460212,0.462409,0.465095,0.467292,0.469245,0.471931,0.473884,0.477058,0.479011,0.48072,0.481453,0.480964,0.481209,0.481941,0.481697,0.480964,0.48072,0.480232,0.4795,0.477546,0.475593,0.472908,0.471199,0.468757,0.468513,0.467048,0.464607,0.464118,0.462898,0.460945,0.460212,0.460212,0.461189,0.45948,0.45948,0.459968,0.459724,0.45948,0.460945,0.4607,0.462165,0.464118,0.466316,0.468025,0.468757,0.471443,0.473884,0.475349,0.476081,0.478279,0.480476,0.479988,0.4795,0.480232,0.481941,0.481697,0.480232,0.479744,0.4795,0.4795,0.478523,0.477302,0.476326,0.474128,0.472908,0.470954,0.469245,0.466804,0.465339,0.465583,0.467048,0.467781,0.468269,0.468025,0.464607,0.461921,0.461189,0.459724,0.459236,0.45948,0.459236,0.460456,0.461189,0.460945,0.4607,0.460945,0.462165,0.465095,0.467781,0.470954,0.473396,0.476326,0.476081,0.477058,0.479255,0.482429,0.481941,0.481697,0.482673,0.480232,0.481453,0.480232,0.479988,0.477058,0.475349,0.472908,0.471443,0.46949,0.467292,0.465339,0.465583,0.465583,0.466072,0.464363,0.464607,0.462165,0.459724,0.458747,0.458503,0.458747,0.458503,0.458747,0.460456,0.460456,0.462409,0.463874,0.465339,0.468269,0.470954,0.474128,0.47779,0.481209,0.484382,0.484138,0.485359,0.488533,0.492927,0.490974,0.490486,0.485847,0.480232,0.476326,0.472175,0.468025,0.464607,0.462898,0.461921,0.460945,0.459724,0.457282,0.457282,0.457038,0.456306,0.45655,0.457527,0.459236,0.458747,0.45948,0.460456,0.45948,0.461189,0.462165,0.462165,0.465583,0.466804,0.468269,0.469978,0.475105,0.480476,0.484871,0.485359,
0.483894,0.492683,0.49659,0.494881,0.493172,0.490242,0.48365,0.475349,0.472663,0.47071,0.471199,0.472663,0.474861,0.47779,0.477302,0.472419,0.478767,0.495369,0.50367,0.501472,0.494148,0.482673,0.471199,0.459236,0.447517,0.435554,0.425299,0.418708,0.412848,0.405524,0.403326,0.405035,0.415534,0.437263,0.4607,0.476814,0.487556,0.492683,0.492439,0.492683,0.4878,0.484138,0.482185,0.481697,0.480232,0.48072,0.484871,0.484138,0.483894,0.481941,0.481453,0.501472,0.534676,0.561288,0.567391,0.55787,0.539559,0.510994,0.4795,0.451423,0.42945,0.412604,0.401129,0.389899,0.373297,0.364019,0.366705,0.376226,0.393072,0.41529,0.437018,0.453864,0.465583,0.474617,0.48072,0.486336,0.489509,0.491951,0.493416,0.495125,0.496345,0.497078,0.496834,0.497078,0.496101,0.493904,0.493172,0.49366,0.492439,0.490974,0.489021,0.487068,0.485603,0.484138,0.482185,0.479744,0.476814,0.474617,0.473396,0.471931,0.46949,0.468757,0.467048,0.465095,0.463874,0.462898,0.46363,0.462409,0.4607,0.460456,0.4607,0.459968,0.4607,0.459724,0.461189,0.462165,0.463386,0.466072,0.467292,0.468513,0.470222,0.472419,0.473884,0.475349,0.47779,0.477546,0.477058,0.476814,0.479255,0.4795,0.480232,0.479744,0.478523,0.47779,0.477546,0.479255,0.482185,0.489998,0.490242,0.486336,0.478523,0.469001,0.462898,0.45655,0.451911,0.450202,0.448981,0.448981,0.448737,0.449226,0.452888,0.455329,0.461677,0.470466,0.473396,0.472908,0.471687,0.469245,0.466804,0.46363,0.461677,0.462654,0.4607,0.459236,0.460456,0.464363,0.464118,0.462165,0.466316,0.477058,0.488045,0.494636,0.499519,0.502205,0.505135,0.512459,0.524422,0.53077,0.528084,0.516609,0.498543,0.478523,0.475593,0.470466,0.455329,0.434821,0.418463,0.407477,0.401129,0.398444,0.398688,0.401373,0.406256,0.411627,0.41236,0.416999,0.458259,0.519539,0.560067,0.569833,0.55787,0.531258,0.497322,0.468513,0.444587,0.428229,0.418463,0.409918,0.403815,0.393805,0.396246,0.410895,0.431891,0.455573,0.474617,0.487556,0.496101,0.502205,0.503914,0.503426,0.502693,0.501961,0.498787,0.493416,0.490974,0.4878,0.483894,0.480476,0.479744,0.484138,0.488533,0.49073,0.489509,0.485359,0.479988,0.47364,0.467292,0.463142,0.461433,0.460945,0.461921,0.4607,0.45948,0.458747,0.460945,0.463386,0.471687,0.478035,0.481697,0.483406,0.48658,0.494881,0.505867,0.51368,0.518563,0.519539,0.518807,0.511238,0.500496,0.486824,0.478279,0.471443,0.464363,0.451911,0.437018,0.424323,0.416999,0.411627,0.411139,0.414069,0.418463,0.420905,0.424567,0.430915,0.440925,0.448005,0.456062,0.461433,0.473152,0.485359,0.490486,0.489265,0.48658,0.484138,0.484382,0.484871,0.484382,0.484138,0.484138,0.481209,0.477546,0.474372,0.472908,0.47364,0.476814,0.481453,0.48365,0.48658,0.485359,0.485115,0.48365,0.482429,0.479744,0.478035,0.475349,0.471931,0.470222,0.469001,0.465339,0.464607,0.464118,0.46363,0.461677,0.460212,0.460945,0.460945,0.461677,0.462409,0.463386,0.464363,0.465339,0.465583,0.467048,0.468513,0.470466,0.472908,0.475105,0.474861,0.476081,0.476326,0.476081,0.479744,0.482918,0.487312,0.488045,0.48658,0.482673,0.47779,0.478767,0.478523,0.475837,0.475837,0.472908,0.468269,0.464118,0.459236,0.455573,0.456794,0.455085,0.452399,0.450446,0.448981,0.449226,0.450202,0.453132,0.456794,0.458991,0.4607,0.460945,0.465095,0.490242,0.510994,0.521981,0.525154,0.527596,0.543221,0.55494,0.54786,0.528817,0.506111,0.478523,0.445075,0.410407,0.394293,0.402594,0.416022,0.417487,0.409918,0.41236,0.433112,0.452644,0.472419,0.487068,0.491951,0.493416,0.493416,0.490974,0.487068,0.483406,0.477302,0.471199,0.465583,0.461921,0.460456,0.455818,0.455329,0.461433,0.472908,0.481941,0.487312,0.489754,0.490974,0.490974,0.485603,0.482429,0.481941,0.480232,0.472419,0.464851,0.455329,0.447272,0.440925,0.433845,0.429694,0.430426,0.4336,0.43653,0.43946,0.444343,0.450202,0.461677,0.47071,0.477302,0.481453,0.486091,0.48658,0.485847,0.484138,0.481941,0.480476,0.477058,0.472908,0.472419,0.474617,0.480232,0.483406,0.488045,0.487312,0.479744,0.467048,0.455573,0.450446,0.452888,0.458503,0.462654,0.466072,0.465827,0.46949,0.470954,0.471443,0.472663,0.47779,0.482185,0.480964,0.480476,0.481697,0.484871,0.489754,0.493416,0.495125,0.495613,0.498787,0.504158,0.509285,0.511727,0.526375,0.548104,0.547127,0.524666,0.495613,0.472175,0.46363,0.468269,0.468757,0.456062,0.434821,0.406744,0.373053,0.360357,0.371832,0.397711,0.416266,0.41944,0.41529,0.415045,0.425788,0.442634,0.453132,0.458991,0.464607,0.468513,0.472419,0.474861,0.474617,0.472908,0.474128,0.477302,0.481453,0.484138,0.48658,0.486336,0.485603,0.490242,0.501717,0.516121,0.522225,0.518563,0.511727,0.511727,0.510018,0.501961,0.492195,0.484382,0.473152,0.460456,0.453376,0.446052,0.437018,0.436286,0.442634,0.463142,0.490486,0.512947,0.532723,0.542,0.535897,0.525887,0.504402,0.474372,0.444343,0.417731,0.396735,0.386969,0.380865,0.375738,0.388678,0.432868,0.478767,0.497078,0.49659,0.48658,0.479988,0.474617,0.469001,0.462654,0.452399,0.430671,0.405768,0.39942,0.408453,0.421149,0.427741,0.440681,0.461921,0.486824,0.511727,0.532479,0.54493,0.551522,0.551522,0.543709,0.530526,0.515389,0.503182,0.495369,0.489754,0.474617,0.476081,0.493904,0.504891,0.501472,0.486824,0.468269,0.473152,0.497078,0.519539,0.527596,0.515633,0.488289,0.442145,0.391608,0.360357,0.351812,0.349371,0.342046,0.337896,0.340093,0.354253,0.380133,0.412604,0.46656,0.560311,0.650645,0.725841,0.776379,0.783215,0.734874,0.660899,0.581064,0.484138,0.376226,0.285893,0.221195,0.181643,0.149905,0.12842,0.133547,0.194095,0.286137,0.363531,0.411383,0.447761,0.485115,0.507332,0.519051,0.536385,0.559579,0.58204,0.598398,0.598886,0.583749,0.572274,0.571298,0.563973,0.549569,0.546883,0.547616,0.538582,0.530282,0.522713,0.512947,0.51075,0.512215,0.510994,0.528817,0.545174,0.550301,0.545907,0.533455,0.510506,0.470954,0.423102,0.370855,0.31519,0.268803,0.241215,0.243412,0.289067,0.354742,0.408453,0.444343,0.461433,0.482673,0.51368,0.571786,0.633066,0.661387,0.664561,0.641367,0.610605,0.586191,0.532235,0.47071,0.421881,0.364508,0.307866,0.316899,0.375738,0.428962,0.444343,0.423102,0.404547,0.393072,0.379889,0.347417,0.323735,0.329107,0.354742,0.389899,0.440192,0.509285,0.594736,0.670176,0.708751,0.695079,0.625742,0.539071,0.470954,0.424079,0.392584,0.368902,0.361334,0.358648,0.364996,0.376471,0.375982,0.376959,0.378912,0.390143,0.422858,0.454353,0.474617,0.482429,0.496834,0.541024,0.60206,0.674571,0.730236,0.758068,0.736339,0.689708,0.630137,0.556161,0.48658,0.42359,0.361334,0.302007,0.257084,0.239506,0.261967,0.316655,0.363287,0.377935,0.395758,0.427253,0.463386,0.487556,0.497566,0.498054,0.491218,0.469978,0.451423,0.438483,0.430915,0.419196,0.404303,0.387945,0.361334,0.355474,0.395758,0.451423,0.506844,0.543465,0.572519,0.605478,0.629892,0.621836,0.581552,0.524422,0.49366,0.502693,0.562509,0.621592,0.633799,0.596201,0.512703,0.414313,0.35816,0.355718,0.387457,0.412604,0.408942,0.382574,0.339849,0.304692,0.316655,0.36817,0.412116,0.435309,0.443122,0.434089,0.418219,0.43238,0.490242,0.536385,0.575204,0.630381,0.668223,0.656016,0.604501,0.552255,0.511238,0.472663,0.442878,0.428962,0.422858,0.451423,0.49781,0.525154,0.515389,0.535164,0.576913,0.618662,0.642588,0.636973,0.607675,0.56202,0.492683,0.406989,0.343755,0.31519,0.30518,0.319585,0.340337,0.336187,0.349615,0.386481,0.418952,0.459236,0.482918,0.493416,0.484382,0.45069,0.418708,0.457771,0.546151,0.599863,0.597177,0.570809,0.580575,0.578378,0.558602,0.533211,0.509773,0.487556,0.462654,0.421393,0.384283,0.376959,0.400641,0.413825,0.419196,0.484627,0.564218,0.579599,0.540047,0.479255,0.424323,0.37818,0.342046,0.303471,0.295415,0.320073,0.337163,0.330327,0.354986,0.421637,0.483162,0.521736,0.549325,0.573495,0.596933,0.64332,0.710704,0.745129,0.69752,0.629648,0.585946,0.548592,0.517586,0.499275,0.462654,0.37818,0.281254,0.217533,0.2168,0.272709,0.352789,0.417243,0.439216,0.441657,0.437263,0.465095,0.52076,0.599619,0.677989,0.734386,0.741711,0.701671,0.654795,0.603525,0.542489,0.490242,0.427985,0.380865,0.343755,0.331304,0.361089,0.391363,0.431891,0.460945,0.417975,0.33228,0.245121,0.225345,0.236332,0.207523,0.185794,0.214847,0.27393,0.336431,0.411627,0.488533,0.525154,0.532479,0.542,0.577646,0.610849,0.665049,0.725841,0.757336,0.745617,0.732677,0.73048,0.710216,0.652842,0.561532,0.473396,0.395758,0.306401,0.23267,0.192142,0.213138,0.315435,0.410163,0.494392,0.563973,0.586191,0.572519,0.535897,0.511727,0.516854,0.523445,0.55494,0.614023,0.676768,0.67042,0.617441,0.545907,0.486336,0.419928,0.377691,0.366949,0.30518,0.218997,0.165286,0.190433,0.304936,0.466316,0.616953,0.70753,0.718273,0.677745,0.611826,0.549081,0.491707,0.517098,0.491951,0.378912,0.262699,0.161379,0.120363,0.146242,0.176028,0.250004,0.361334,0.430671,0.433845,0.426276,0.435554,0.488533,0.549325,0.576181,0.540047,0.506844,0.520027,0.62208,0.68751,0.665782,0.607675,0.553231,0.494392,0.42237,0.340093,0.281987,0.247318,0.265629,0.333989,0.418952,0.540536,0.616953,0.653574,0.675303,0.657725,0.67628,0.719493,0.781018,0.849134,0.857191,0.803967,0.711681,0.625986,0.576181,0.51783,0.418219,0.293706,0.229496,0.174319,0.0717784,0.000244144,0.000244144,0.103761,0.173098,0.231937,0.332036,0.436286,0.515145,0.61622,0.646006,0.601816,0.5337,0.459724,0.398199,0.338384,
0.479255,0.480232,0.510994,0.508309,0.440192,0.33106,0.157473,0.127687,0.247562,0.417731,0.596201,0.71046,0.69337,0.602792,0.511971,0.396002,0.27393,0.185794,0.160403,0.197513,0.295903,0.438239,0.552255,0.634531,0.749523,0.845472,0.872572,0.7776,0.638437,0.491463,0.420905,0.452888,0.504891,0.486091,0.439216,0.391119,0.330327,0.331304,0.386481,0.370367,0.26099,0.19263,0.287846,0.43946,0.488533,0.492195,0.493904,0.4878,0.489021,0.452399,0.420417,0.435065,0.46656,0.527352,0.599863,0.642588,0.622812,0.549325,0.457771,0.416022,0.430182,0.497566,0.57496,0.670176,0.758312,0.804211,0.766613,0.679698,0.596933,0.48072,0.320562,0.162844,0.0705577,0.0371099,0.137453,0.287358,0.361334,0.32398,0.292241,0.346685,0.394781,0.415778,0.424567,0.451911,0.519783,0.605234,0.673838,0.711681,0.745373,0.808118,0.888197,0.856703,0.749767,0.630137,0.547127,0.478523,0.397467,0.281254,0.123293,0.00732433,0,0.1355,0.247807,0.288823,0.277348,0.249027,0.262211,0.282719,0.315679,0.411383,0.544198,0.692149,0.78883,0.839612,0.832532,0.789563,0.750256,0.671397,0.584237,0.508064,0.4795,0.478035,0.450202,0.414801,0.391852,0.399176,0.436286,0.455573,0.375738,0.288579,0.241947,0.244388,0.306401,0.401617,0.484627,0.494392,0.443854,0.380377,0.385748,0.467048,0.61915,0.775158,0.855726,0.846693,0.799573,0.729503,0.609384,0.497566,0.432624,0.458747,0.531991,0.584482,0.560311,0.484382,0.456794,0.441169,0.358892,0.199222,0.050782,0.00122072,0.0715343,0.207767,0.312016,0.368414,0.432868,0.483406,0.527352,0.620371,0.718517,0.760021,0.735851,0.703624,0.673838,0.635996,0.584726,0.48072,0.374762,0.333501,0.277592,0.212894,0.171145,0.130373,0.188235,0.281987,0.352544,0.409918,0.428473,0.458503,0.497322,0.572519,0.638193,0.662119,0.630137,0.583505,0.558846,0.535653,0.494881,0.449958,0.436286,0.457282,0.490242,0.471687,0.422126,0.394293,0.40943,0.474617,0.518807,0.536385,0.488045,0.384771,0.356451,0.463142,0.604746,0.677256,0.646738,0.558358,0.481697,0.411383,0.341314,0.26685,0.200931,0.254643,0.434821,0.610849,0.760021,0.885756,0.939956,0.939223,0.923598,0.823499,0.691905,0.511971,0.317632,0.186282,0.0175784,0,0.000244144,0,0.0844739,0.161868,0.225345,0.307134,0.401617,0.475105,0.537118,0.595956,0.631357,0.642344,0.634531,0.612558,0.599374,0.591562,0.599374,0.612314,0.60621,0.59205,0.591073,0.57496,0.534188,0.499519,0.458015,0.4065,0.384527,0.431891,0.482429,0.494392,0.492927,0.486824,0.457527,0.468757,0.500984,0.466316,0.420172,0.424811,0.458259,0.495613,0.478279,0.418952,0.364019,0.320317,0.330327,0.343511,0.33814,0.362554,0.417487,0.516121,0.617685,0.707774,0.735363,0.706554,0.670909,0.651621,0.634287,0.551278,0.447028,0.360113,0.272221,0.234623,0.312749,0.385016,0.353765,0.261723,0.187991,0.177981,0.214847,0.289311,0.384039,0.489998,0.549569,0.566659,0.570565,0.561532,0.53492,0.51783,0.525643,0.558602,0.578134,0.638682,0.710216,0.734386,0.729503,0.726574,0.785901,0.805188,0.717052,0.566659,0.455573,0.396735,0.345953,0.326177,0.303716,0.306889,0.282963,0.270512,0.325689,0.3794,0.321782,0.246098,0.211917,0.224613,0.289067,0.390143,0.483894,0.557626,0.621103,0.625986,0.568856,0.505135,0.43238,0.339117,0.252445,0.229984,0.232914,0.250004,0.245609,0.284672,0.392584,0.545174,0.691661,0.763195,0.839368,0.894301,0.932631,0.939956,0.856947,0.749035,0.624277,0.459724,0.287114,0.197269,0.163088,0.172366,0.186526,0.212894,0.268315,0.341802,0.400397,0.427253,0.469734,0.534188,0.547127,0.529793,0.503426,0.466072,0.447517,0.476081,0.549325,0.691173,0.830335,0.871839,0.815686,0.650645,0.441657,0.302251,0.253178,0.26807,0.241215,0.17261,0.120851,0.138674,0.298589,0.53077,0.701915,0.73756,0.723156,0.702403,0.683116,0.641611,0.59791,0.534432,0.457038,0.33521,0.23389,0.210208,0.220706,0.280522,0.35816,0.446296,0.466316,0.47071,0.532723,0.610849,0.655772,0.625498,0.519783,0.405524,0.340826,0.291508,0.260014,0.262211,0.323735,0.384771,0.468513,0.576669,0.646006,0.692882,0.714366,0.677745,0.590829,0.493172,0.45655,0.472175,0.481697,0.479011,0.469978,0.456062,0.421393,0.397467,0.448005,0.558602,0.624277,0.607431,0.575448,0.554696,0.514656,0.430182,0.338628,0.284672,0.298833,0.33106,0.357183,0.368414,0.389654,0.425788,0.459236,0.4878,0.502693,0.642832,0.864271,0.939956,0.9402,0.859632,0.615244,0.354009,0.15967,0.0803235,0.0927749,0.00195315,0,0.0471199,0.362554,0.642588,0.705333,0.559091,0.391608,0.356207,0.442878,0.60206,0.732433,0.762951,0.67042,0.581552,0.549813,0.48365,0.332036,0.181643,0.0666514,0.0883803,0.199466,0.334722,0.484138,0.596689,0.667735,0.725841,0.755383,0.756603,0.725109,0.635019,0.58912,0.604501,0.672862,0.726818,0.693858,0.515877,0.314214,0.199954,0.123049,0.0505379,0.000244144,0.000244144,0,0.116701,0.246342,0.374273,0.493416,0.558846,0.589364,0.608896,0.628672,0.674815,0.712169,0.701671,0.699962,0.698985,0.688243,0.727062,0.727306,0.606943,0.462898,0.435554,0.476814,0.43946,0.333257,0.268315,0.224857,0.198489,0.225834,0.270756,0.313237,0.415778,0.519539,0.583261,0.631601,0.703624,0.841077,0.940688,0.940932,0.839124,0.698741,0.593027,0.527108,0.442634,0.273686,0.0893568,0.000976577,0,0,0.143801,0.268315,0.330327,0.353521,0.405524,0.470466,0.518074,0.578866,0.673838,0.756847,0.765881,0.704845,0.627451,0.541024,0.458747,0.354742,0.267582,0.26978,0.373053,0.515633,0.580087,0.544442,0.519295,0.538338,0.511727,0.406744,0.375494,0.41236,0.431403,0.418219,0.396979,0.417243,0.471931,0.51075,0.529305,0.531502,0.529793,0.521248,0.531014,0.586435,0.609873,0.595712,0.590829,0.606699,0.691905,0.747814,0.754894,0.769543,0.822522,0.803479,0.674815,0.430671,0.117433,0,0.000244144,0.000488289,0,0,0.0634775,0.222904,0.31812,0.367193,0.396002,0.411872,0.449226,0.572274,0.766613,0.9402,0.940444,0.941909,0.879896,0.700694,0.528328,0.361822,0.194095,0.0410163,0,0.0383307,0.14258,0.276371,0.46363,0.597177,0.653574,0.662852,0.660655,0.624521,0.559335,0.479011,0.457038,0.516121,0.609873,0.634531,0.602548,0.540536,0.529793,0.567147,0.546883,0.477058,0.404547,0.39649,0.42237,0.4065,0.348638,0.302007,0.275883,0.294926,0.318364,0.335454,0.410651,0.469001,0.491951,0.506844,0.582284,0.663828,0.655528,0.588876,0.490242,0.414557,0.445563,0.508064,0.523445,0.48658,0.408942,0.379644,0.425055,0.53077,0.648447,0.672374,0.599374,0.528817,0.548104,0.609628,0.649424,0.631113,0.571786,0.4795,0.415045,0.349371,0.304448,0.26392,0.179934,0.0810559,0.0715343,0.188968,0.313237,0.42237,0.500984,0.514412,0.499519,0.519295,0.551034,0.558114,0.499031,0.393317,0.370855,0.474372,0.621347,0.713878,0.754406,0.721935,0.631846,0.52491,0.467048,0.458747,0.447272,0.355474,0.307866,0.339605,0.387945,0.435309,0.464118,0.438239,0.377203,0.354009,0.383551,0.485115,0.585458,0.622568,0.645518,0.637705,0.618173,0.608652,0.580331,0.546395,0.530282,0.523934,0.536141,0.557626,0.556893,0.573983,0.526864,0.373053,0.240238,0.158206,0.0424811,0,0.016846,0.135744,0.303227,0.469734,0.580087,0.622324,0.615244,0.57789,0.510262,0.427741,0.393805,0.460945,0.592294,0.655772,0.702159,0.772229,0.803967,0.782483,0.704112,0.577646,0.415534,0.325689,0.39649,0.474861,0.4607,0.418952,0.410651,0.430182,0.476814,0.482918,0.469001,0.455329,0.412848,0.340337,0.287114,0.278569,0.300542,0.367681,0.525154,0.687999,0.737804,0.651865,0.536385,0.518074,0.577157,0.622324,0.58497,0.503426,0.421393,0.432624,0.509041,0.536629,0.511971,0.57911,0.599619,0.535897,0.430915,0.28687,0.0922866,0.000732433,0,0,0.000488289,0.172366,0.408453,0.566903,0.673106,0.755138,0.77052,0.716564,0.627451,0.553964,0.491707,0.453132,0.437263,0.475349,0.566415,0.587167,0.566171,0.573983,0.593027,0.591073,0.546395,0.42945,0.3252,0.285649,0.292241,0.34107,0.404547,0.464363,0.597177,0.754406,0.868177,0.883803,0.818616,0.722423,0.618418,0.471443,0.36231,0.272953,0.20972,0.224857,0.239261,0.273198,0.307622,0.288823,0.261479,0.266117,0.340337,0.430426,0.508309,0.591073,0.662119,0.721935,0.736095,0.676524,0.563729,0.424323,0.28394,0.160891,0.157229,0.258305,0.458503,0.65626,0.727794,0.700694,0.613046,0.545907,0.49073,0.428717,0.38233,0.356451,0.317632,0.297612,0.272221,0.275151,0.317632,0.384771,0.454841,0.505379,0.523445,0.519295,0.528817,0.5608,0.605478,0.631113,0.63624,0.635019,0.63209,0.644297,0.65333,0.650401,0.685069,0.700206,0.643076,0.583993,0.604013,0.704845,0.715831,0.622812,0.434089,0.228519,0.0893568,0,0.000244144,0.000244144,0,0.159426,0.435554,0.620859,0.752941,0.825696,0.77174,0.663828,0.553719,0.481941,0.44361,0.40235,0.323491,0.254887,0.221927,0.206546,0.248539,0.286137,0.346929,0.407721,0.489509,0.524178,0.509285,0.501472,0.495369,0.467048,0.413336,0.353521,0.322026,0.320562,0.362066,0.437751,0.510262,0.555673,0.570565,0.572519,0.582528,0.605234,0.608408,0.587655,0.574472,0.58912,0.663096,0.74757,0.788586,0.782971,0.738781,0.650645,0.543709,0.464118,0.431647,0.363775,0.272221,0.223148,0.245853,0.328618,0.404547,0.458747,0.510018,0.561776,0.608652,0.665049,0.722179,0.748302,0.694591,0.593759,0.448249,0.261723,0.118654,0.0471199,0.000244144,0.000244144,0,0.0920424,0.212161,0.336187,0.462165,0.564462,0.637949,0.680186,0.714611,0.755383,0.769543,0.742931,0.683116,0.60499,0.526131,0.478767,0.442878,0.427497,0.461189,0.512947,0.537606,0.542733,0.534188,
0.472175,0.471199,0.472419,0.473884,0.468757,0.464363,0.4607,0.456306,0.452644,0.449226,0.444343,0.442878,0.442878,0.441901,0.442634,0.443122,0.446052,0.447761,0.447517,0.450202,0.45655,0.463142,0.471199,0.481941,0.489754,0.494881,0.49781,0.502205,0.505135,0.502693,0.501472,0.49781,0.494881,0.491463,0.485847,0.481697,0.479011,0.474617,0.470466,0.465339,0.463386,0.458747,0.457282,0.457038,0.457282,0.454841,0.453376,0.453376,0.452399,0.453376,0.452644,0.451423,0.452155,0.453376,0.454841,0.455573,0.448981,0.447517,0.450202,0.452644,0.457527,0.463386,0.468757,0.470954,0.474128,0.47657,0.479744,0.482918,0.48658,0.491463,0.493416,0.495857,0.494881,0.494148,0.49073,0.487556,0.484871,0.482429,0.478767,0.474617,0.472663,0.47071,0.467536,0.46656,0.467048,0.466804,0.464363,0.46363,0.463386,0.463874,0.462898,0.463142,0.464607,0.464607,0.465583,0.465827,0.467048,0.468269,0.470222,0.472419,0.474617,0.475593,0.478523,0.479255,0.478279,0.478523,0.478279,0.479744,0.480476,0.482673,0.485359,0.487556,0.488777,0.488289,0.487556,0.485847,0.482429,0.479988,0.478035,0.474861,0.472663,0.471199,0.467536,0.463386,0.462165,0.461189,0.45948,0.455818,0.45362,0.449226,0.44654,0.44654,0.447761,0.450202,0.452644,0.455573,0.458259,0.461189,0.464363,0.467048,0.469978,0.47364,0.476081,0.478767,0.481209,0.481941,0.482429,0.483894,0.485359,0.485359,0.485359,0.484627,0.483406,0.48365,0.482429,0.48365,0.480232,0.478279,0.474617,0.471443,0.468513,0.467048,0.465095,0.464118,0.462654,0.462165,0.462898,0.462898,0.459968,0.460456,0.459724,0.460212,0.460212,0.460945,0.461433,0.463142,0.464363,0.467292,0.469978,0.471687,0.474372,0.477058,0.478767,0.480476,0.482673,0.483894,0.484382,0.484627,0.486336,0.487556,0.48658,0.48658,0.487556,0.486091,0.486824,0.483894,0.481453,0.479011,0.477058,0.474617,0.472175,0.468757,0.46656,0.464851,0.463386,0.460945,0.460212,0.460456,0.459968,0.457527,0.458259,0.458259,0.457771,0.458015,0.458991,0.460212,0.461189,0.463142,0.465827,0.468025,0.469245,0.471687,0.474128,0.476326,0.477058,0.477546,0.478035,0.476326,0.475349,0.477546,0.478523,0.478767,0.477546,0.47779,0.47779,0.477058,0.474617,0.472908,0.471199,0.469978,0.46949,0.46949,0.468025,0.465339,0.462898,0.461189,0.458991,0.458747,0.458259,0.458503,0.456794,0.456306,0.456062,0.456794,0.457527,0.457282,0.457038,0.458503,0.460945,0.462898,0.465339,0.467781,0.47071,0.474128,0.475349,0.47779,0.479744,0.480964,0.481453,0.480476,0.482673,0.484627,0.484138,0.483406,0.481941,0.481941,0.481697,0.479988,0.478523,0.476814,0.474861,0.472908,0.470954,0.468757,0.46656,0.465095,0.462898,0.460945,0.460212,0.459724,0.459236,0.457038,0.457527,0.457527,0.457527,0.458503,0.457771,0.458015,0.45948,0.461189,0.464118,0.46656,0.468757,0.472175,0.474861,0.475105,0.475837,0.479744,0.481453,0.48072,0.480476,0.481453,0.481453,0.481697,0.48072,0.480232,0.4795,0.4795,0.477058,0.476326,0.47364,0.471443,0.469001,0.466316,0.464851,0.461921,0.461189,0.458991,0.457282,0.457282,0.45655,0.455329,0.453132,0.452888,0.454108,0.454597,0.455573,0.456062,0.457038,0.458991,0.460456,0.462898,0.466072,0.468269,0.471199,0.474617,0.476326,0.477546,0.478767,0.478767,0.478523,0.47779,0.479988,0.480232,0.480232,0.480476,0.48072,0.480232,0.480964,0.480232,0.4795,0.475105,0.471443,0.470222,0.467536,0.465827,0.464607,0.463142,0.461921,0.460212,0.459968,0.460212,0.459724,0.458259,0.458259,0.457771,0.458747,0.459724,0.460212,0.461189,0.462898,0.463142,0.463386,0.458747,0.451423,0.449958,0.453376,0.457527,0.463142,0.46949,0.473884,0.476081,0.479988,0.484138,0.488045,0.490242,0.491951,0.492927,0.494636,0.495857,0.495369,0.493172,0.489021,0.486091,0.482918,0.480232,0.476326,0.473396,0.471931,0.46949,0.467536,0.46656,0.465095,0.464851,0.461189,0.459236,0.460456,0.459968,0.45948,0.45948,0.461189,0.461433,0.46363,0.464363,0.466316,0.467048,0.468757,0.470466,0.471931,0.473152,0.475105,0.47657,0.477302,0.477058,0.479988,0.481209,0.480232,0.48072,0.479255,0.478279,0.478767,0.478279,0.476326,0.474128,0.471931,0.470954,0.469245,0.466804,0.465339,0.465095,0.46363,0.460456,0.45948,0.458259,0.457282,0.454353,0.453132,0.453376,0.454841,0.456306,0.456062,0.458503,0.459236,0.461189,0.463386,0.465095,0.467292,0.470222,0.472419,0.474617,0.475105,0.477546,0.477058,0.478035,0.477546,0.4795,0.479744,0.480232,0.480476,0.480476,0.480232,0.480232,0.478767,0.478523,0.47657,0.475105,0.473884,0.472175,0.469978,0.468757,0.467048,0.465095,0.462898,0.463874,0.463142,0.461189,0.460212,0.458991,0.458259,0.458259,0.458503,0.458259,0.458991,0.4607,0.462165,0.464118,0.466804,0.469734,0.471687,0.47364,0.475105,0.475349,0.47779,0.478035,0.477302,0.477302,0.479744,0.479744,0.479744,0.4795,0.479744,0.478767,0.4795,0.478523,0.476814,0.474617,0.473396,0.472175,0.469734,0.468025,0.465095,0.463386,0.4607,0.458991,0.460212,0.458747,0.457282,0.454841,0.454841,0.455085,0.455818,0.456794,0.457527,0.458503,0.459724,0.462898,0.464607,0.465583,0.467536,0.469978,0.472175,0.474617,0.475837,0.477546,0.478035,0.47779,0.47779,0.479744,0.480476,0.479011,0.478767,0.478035,0.478279,0.478279,0.478523,0.477058,0.475593,0.474617,0.472663,0.471199,0.469245,0.467292,0.465583,0.464118,0.464607,0.465339,0.468269,0.468269,0.466072,0.465583,0.46363,0.4607,0.459236,0.457282,0.457038,0.458259,0.458991,0.461189,0.463142,0.463142,0.465827,0.469001,0.472175,0.474617,0.478035,0.480964,0.481697,0.482429,0.48365,0.484138,0.484138,0.487556,0.489265,0.488045,0.48658,0.483162,0.48072,0.476814,0.472663,0.470954,0.467536,0.465095,0.464607,0.462898,0.459968,0.458503,0.457282,0.456062,0.456306,0.456062,0.458503,0.459968,0.462165,0.463386,0.464118,0.465095,0.465095,0.466804,0.467781,0.468513,0.469245,0.471443,0.474861,0.474617,0.474617,0.476081,0.477058,0.477058,0.477546,0.480232,0.4795,0.478523,0.479255,0.478523,0.4795,0.4795,0.478523,0.477546,0.475593,0.471687,0.471443,0.470954,0.468513,0.467048,0.464851,0.462898,0.462165,0.461921,0.461433,0.459968,0.458991,0.458015,0.459236,0.45948,0.460456,0.460456,0.461921,0.462654,0.464363,0.46656,0.468269,0.471443,0.47364,0.475593,0.476326,0.47779,0.478523,0.478523,0.477546,0.477302,0.478279,0.478767,0.478523,0.4795,0.479988,0.481697,0.481941,0.479255,0.476814,0.475349,0.471931,0.469978,0.467292,0.464118,0.462165,0.461189,0.458991,0.457527,0.458015,0.457282,0.455573,0.455329,0.455329,0.455329,0.455818,0.45655,0.45655,0.459236,0.4607,0.463874,0.465339,0.466804,0.469978,0.473396,0.476326,0.47779,0.478767,0.481453,0.481697,0.480232,0.48072,0.482918,0.482673,0.483406,0.482185,0.481453,0.481697,0.481209,0.4795,0.47779,0.47779,0.47657,0.475349,0.472175,0.468513,0.466072,0.464363,0.464607,0.467048,0.46656,0.465095,0.461189,0.458991,0.457038,0.456794,0.45362,0.452399,0.451423,0.452644,0.452399,0.455329,0.457771,0.459236,0.460212,0.462654,0.467048,0.47071,0.475349,0.4795,0.480476,0.481697,0.482185,0.484627,0.484871,0.483894,0.482918,0.481941,0.481697,0.48072,0.479255,0.478035,0.477058,0.475349,0.473884,0.472663,0.469001,0.466804,0.465827,0.464363,0.462898,0.462165,0.461921,0.460945,0.460212,0.459724,0.459236,0.45948,0.460212,0.460456,0.461189,0.46363,0.465583,0.467781,0.468757,0.470466,0.472419,0.473884,0.475349,0.47779,0.478523,0.478279,0.477058,0.477058,0.47779,0.481941,0.486336,0.487556,0.485603,0.484871,0.480964,0.477302,0.473884,0.469001,0.465095,0.463142,0.464851,0.464363,0.464118,0.462165,0.459236,0.457527,0.460456,0.464607,0.465339,0.466316,0.467048,0.467781,0.466804,0.462654,0.459236,0.458015,0.457282,0.457771,0.458991,0.458991,0.460456,0.465339,0.469001,0.470954,0.472908,0.475837,0.479744,0.48072,0.482673,0.485359,0.484627,0.485847,0.486336,0.485603,0.485359,0.483162,0.481941,0.48072,0.479011,0.476326,0.474861,0.472419,0.469978,0.467781,0.468025,0.46363,0.461921,0.461677,0.462165,0.460212,0.457771,0.458259,0.458259,0.458503,0.459236,0.458991,0.460456,0.461921,0.463142,0.464607,0.467048,0.468269,0.469978,0.472175,0.473396,0.476326,0.478035,0.47779,0.47779,0.478523,0.480476,0.480232,0.480232,0.480232,0.478767,0.479988,0.4795,0.47779,0.476814,0.474617,0.472419,0.470222,0.468025,0.465583,0.464118,0.462898,0.460945,0.461921,0.460212,0.460945,0.459236,0.458747,0.458991,0.458747,0.458503,0.460212,0.460456,0.462898,0.465339,0.467048,0.468025,0.468513,0.468757,0.469734,0.470954,0.476081,0.480232,0.484382,0.485603,0.485115,0.486824,0.487556,0.488533,0.489509,0.489754,0.486336,0.486336,0.485359,0.484627,0.482429,0.479744,0.477058,0.474617,0.471931,0.466804,0.46363,0.461921,0.459236,0.458259,0.457038,0.456306,0.454597,0.453376,0.453376,0.45362,0.454108,0.455329,0.455818,0.457282,0.459236,0.460456,0.462654,0.465339,0.46656,0.470466,0.472419,0.47364,0.475593,0.47657,0.476326,0.476326,0.47779,0.479011,0.479744,0.479255,0.4795,0.47779,0.478279,0.477302,0.47657,0.474617,0.474372,0.471687,0.470222,0.468513,0.465339,0.464363,0.462654,0.460212,0.459236,0.460212,0.460945,0.459236,0.459236,0.458503,0.454597,0.454353,0.45362,0.454597,0.456306,0.458259,0.4607,0.462654,0.464607,0.467781,0.470954,0.473152,0.474861,0.47657,0.479011,0.478279,0.478279,0.481209,0.485359,0.488045,0.488045,0.489265,0.488533,0.489265,0.489509,0.488533,0.485847,0.481697,0.478279,0.475105,0.472419,0.469978,0.468513,0.46656,
0.465583,0.464851,0.464363,0.462654,0.460945,0.461433,0.460945,0.460945,0.462165,0.460456,0.4607,0.461433,0.463142,0.465583,0.467536,0.469001,0.474128,0.481209,0.483894,0.485603,0.488533,0.489509,0.487312,0.482918,0.481209,0.482429,0.48072,0.479011,0.475105,0.472419,0.470222,0.471443,0.474861,0.476326,0.47657,0.47657,0.479255,0.482673,0.478279,0.466804,0.455085,0.447028,0.44239,0.440192,0.438727,0.439216,0.443122,0.444343,0.445075,0.446296,0.446296,0.447517,0.44947,0.454108,0.462654,0.468757,0.472663,0.475349,0.479011,0.480232,0.479744,0.478523,0.479255,0.481209,0.483894,0.487556,0.488289,0.487556,0.488045,0.487068,0.487556,0.487556,0.4878,0.487312,0.486824,0.484138,0.480964,0.477058,0.473396,0.471199,0.468513,0.469245,0.478767,0.487556,0.493172,0.490974,0.483162,0.47657,0.468757,0.462165,0.457282,0.453132,0.448249,0.44654,0.445563,0.444343,0.440436,0.438483,0.437263,0.441413,0.456306,0.473152,0.482429,0.484627,0.484382,0.48365,0.48658,0.486336,0.487556,0.493416,0.494392,0.493416,0.486824,0.477546,0.468513,0.460456,0.454841,0.451667,0.449958,0.450202,0.449226,0.447272,0.445075,0.447272,0.451179,0.457038,0.460945,0.464607,0.468757,0.47071,0.471931,0.474372,0.475837,0.479988,0.486091,0.493172,0.496834,0.498299,0.50074,0.499519,0.495369,0.488045,0.481697,0.475105,0.466804,0.460456,0.457771,0.458747,0.457771,0.457771,0.455329,0.461433,0.468757,0.470954,0.46949,0.467536,0.465583,0.462409,0.462165,0.461433,0.459968,0.460945,0.45948,0.455329,0.452644,0.452155,0.452644,0.453864,0.458747,0.464363,0.467536,0.469978,0.469978,0.469734,0.470466,0.471443,0.472663,0.473396,0.473884,0.474617,0.47657,0.478279,0.4795,0.48072,0.482918,0.482673,0.482429,0.481209,0.483406,0.48365,0.483162,0.483162,0.482185,0.480964,0.479744,0.478523,0.476814,0.477058,0.483162,0.493904,0.50074,0.505135,0.524422,0.542245,0.544198,0.531014,0.510262,0.489998,0.469245,0.45069,0.429938,0.408942,0.393561,0.388678,0.381109,0.368414,0.375006,0.399664,0.427008,0.44654,0.461433,0.474617,0.485115,0.491218,0.494636,0.500008,0.500984,0.510018,0.52369,0.528817,0.519051,0.503426,0.489509,0.471931,0.453132,0.437507,0.428962,0.426032,0.422614,0.420172,0.414801,0.415778,0.425544,0.445319,0.462654,0.476814,0.485603,0.491463,0.494392,0.492683,0.492195,0.49073,0.488533,0.483406,0.477546,0.471931,0.466316,0.461189,0.456794,0.453376,0.45069,0.452155,0.454108,0.454353,0.456794,0.463874,0.474617,0.491707,0.522225,0.550301,0.566659,0.573007,0.570565,0.557626,0.538827,0.533455,0.538094,0.553231,0.550546,0.525887,0.490486,0.453376,0.419928,0.397711,0.379889,0.360601,0.340093,0.319829,0.30103,0.287114,0.294926,0.323735,0.365972,0.404547,0.431403,0.449226,0.463142,0.478767,0.495369,0.511482,0.533211,0.556161,0.570565,0.578866,0.57911,0.583749,0.605234,0.622812,0.612314,0.585214,0.550301,0.512703,0.467048,0.423835,0.392096,0.368658,0.349371,0.340337,0.340093,0.347417,0.363775,0.387945,0.419196,0.44654,0.471199,0.494148,0.52491,0.558358,0.57789,0.575937,0.562264,0.541756,0.520027,0.49366,0.462654,0.427008,0.395026,0.374029,0.364996,0.366461,0.382086,0.42652,0.471931,0.49781,0.504402,0.501961,0.498787,0.498299,0.489998,0.478767,0.468513,0.458747,0.443122,0.424323,0.431159,0.45948,0.48658,0.502693,0.506355,0.514168,0.52076,0.52369,0.522469,0.518807,0.514412,0.508309,0.501472,0.491463,0.48365,0.478523,0.470954,0.465095,0.45948,0.454353,0.448737,0.441901,0.432136,0.424079,0.419928,0.424811,0.440436,0.462898,0.476814,0.480476,0.48072,0.486336,0.515877,0.559091,0.583993,0.589364,0.588388,0.573495,0.540536,0.487556,0.429938,0.380865,0.350591,0.337896,0.327642,0.315435,0.320562,0.343755,0.383795,0.424567,0.458015,0.486091,0.505135,0.520272,0.537362,0.540047,0.533211,0.521248,0.518074,0.515633,0.511727,0.49781,0.479255,0.460212,0.445075,0.436286,0.429938,0.425544,0.426276,0.431891,0.435065,0.434333,0.44361,0.45948,0.475837,0.485603,0.487556,0.485115,0.479744,0.478035,0.479744,0.487556,0.499519,0.507576,0.511727,0.511238,0.50367,0.493416,0.482429,0.473884,0.468025,0.463142,0.458991,0.460945,0.487068,0.507576,0.509041,0.503426,0.492683,0.484138,0.471687,0.458503,0.443122,0.428962,0.420172,0.398444,0.38941,0.407721,0.434821,0.456062,0.465095,0.471931,0.481941,0.492439,0.496345,0.495125,0.489509,0.485603,0.48365,0.48365,0.489998,0.497566,0.502937,0.514168,0.524666,0.530282,0.526864,0.515877,0.505867,0.496834,0.483406,0.464607,0.446296,0.429206,0.416266,0.409186,0.407233,0.413825,0.428229,0.438727,0.438483,0.427741,0.423102,0.432868,0.471687,0.512459,0.550301,0.569345,0.560555,0.533455,0.50782,0.498299,0.484871,0.468513,0.475837,0.489021,0.481697,0.454597,0.421149,0.411383,0.409186,0.404303,0.403082,0.381353,0.348394,0.341314,0.352789,0.368902,0.397467,0.435065,0.465095,0.490486,0.53077,0.566659,0.575204,0.565682,0.562997,0.566415,0.562264,0.543465,0.519051,0.492439,0.463874,0.429938,0.413581,0.427497,0.443854,0.447761,0.437995,0.423102,0.412116,0.409186,0.41529,0.426276,0.441169,0.455818,0.466072,0.479011,0.501472,0.515877,0.518318,0.514168,0.508064,0.496345,0.486091,0.486824,0.496345,0.510262,0.520272,0.523445,0.528817,0.535653,0.531258,0.516854,0.490242,0.464363,0.441169,0.432868,0.431403,0.440925,0.458015,0.4795,0.489021,0.485603,0.479744,0.474128,0.469734,0.461921,0.44654,0.435798,0.428717,0.428717,0.441169,0.460945,0.472908,0.477302,0.479255,0.4795,0.488045,0.509529,0.545663,0.568124,0.565194,0.545174,0.516365,0.501961,0.493172,0.482673,0.475105,0.471199,0.451179,0.421393,0.386725,0.374273,0.385016,0.394537,0.425788,0.494636,0.558846,0.587167,0.591318,0.566659,0.510018,0.442634,0.383795,0.344732,0.310796,0.245121,0.205081,0.227298,0.281254,0.340581,0.38526,0.421881,0.462898,0.503426,0.535897,0.564706,0.581308,0.583261,0.594003,0.61622,0.642588,0.656748,0.642832,0.606455,0.572274,0.553964,0.538338,0.519783,0.494636,0.464607,0.438239,0.418708,0.420661,0.418708,0.409918,0.401373,0.382086,0.353521,0.323247,0.29395,0.276616,0.286381,0.313725,0.352789,0.379889,0.388678,0.399908,0.406989,0.411139,0.414313,0.41236,0.428473,0.483162,0.548592,0.590829,0.606699,0.604501,0.583505,0.568612,0.563241,0.539803,0.488289,0.427985,0.400397,0.389899,0.393805,0.437507,0.5066,0.545663,0.551766,0.541268,0.524422,0.505379,0.503182,0.513436,0.55494,0.595468,0.558846,0.454108,0.346197,0.300053,0.336187,0.390143,0.421149,0.413336,0.393805,0.395514,0.417243,0.45069,0.473884,0.484871,0.487556,0.475593,0.469001,0.48072,0.513436,0.544686,0.557626,0.552255,0.55787,0.577157,0.593271,0.582528,0.559335,0.533944,0.50367,0.448249,0.383307,0.325444,0.311772,0.340581,0.405524,0.468025,0.49366,0.495613,0.49366,0.511727,0.532479,0.552743,0.601572,0.65333,0.664561,0.626474,0.560067,0.49366,0.45948,0.454353,0.44361,0.417975,0.389899,0.353277,0.296635,0.262211,0.291264,0.37525,0.470954,0.533944,0.580087,0.620859,0.630625,0.615976,0.569589,0.516609,0.49366,0.494392,0.503426,0.547127,0.5879,0.619883,0.60914,0.576669,0.531991,0.471443,0.426764,0.397223,0.364263,0.301518,0.270512,0.30103,0.354498,0.424323,0.494881,0.568124,0.640391,0.69044,0.667247,0.591073,0.51783,0.469001,0.437018,0.404547,0.332525,0.282963,0.271244,0.285649,0.319585,0.356695,0.372564,0.376471,0.376959,0.36817,0.370855,0.400641,0.445319,0.47657,0.48365,0.487556,0.530526,0.605966,0.667247,0.67921,0.655528,0.615488,0.572519,0.534676,0.515145,0.512947,0.521736,0.541024,0.551278,0.537118,0.51368,0.486824,0.452399,0.393805,0.332525,0.261723,0.234134,0.280034,0.36939,0.455085,0.522957,0.566659,0.581064,0.568124,0.516609,0.486824,0.533211,0.567147,0.545663,0.509041,0.50367,0.520272,0.52491,0.48658,0.398444,0.353033,0.370855,0.406989,0.441413,0.482429,0.542,0.675059,0.76759,0.753918,0.669932,0.595224,0.566903,0.57496,0.520272,0.376959,0.232914,0.115969,0.0136721,0.000244144,0.000244144,0.000488289,0.140383,0.346929,0.484138,0.517098,0.525887,0.538582,0.5149,0.498054,0.502449,0.514656,0.525154,0.5066,0.492195,0.481941,0.477546,0.486824,0.517342,0.564218,0.570321,0.535409,0.519295,0.526619,0.530037,0.541024,0.559579,0.56495,0.551034,0.540047,0.548104,0.554208,0.556649,0.550301,0.517098,0.466072,0.405768,0.357916,0.337652,0.367193,0.417487,0.449714,0.467048,0.52076,0.571786,0.591318,0.613779,0.59791,0.562509,0.520027,0.486824,0.458747,0.430671,0.397467,0.32813,0.251957,0.197513,0.19971,0.267826,0.333989,0.368414,0.435798,0.521004,0.59205,0.629892,0.637461,0.666026,0.724865,0.720958,0.644541,0.552255,0.484627,0.458503,0.422614,0.358648,0.266117,0.203616,0.230716,0.287602,0.318608,0.370855,0.419684,0.458015,0.4878,0.49366,0.513436,0.531258,0.510018,0.484871,0.469001,0.437995,0.413336,0.413581,0.443366,0.48658,0.479011,0.42652,0.390387,0.389166,0.401617,0.4336,0.484138,0.560067,0.605234,0.609384,0.596445,0.581064,0.592294,0.628428,0.640879,0.63917,0.615244,0.547127,0.452399,0.394781,0.377691,0.334722,0.289555,0.299077,0.34107,0.367193,0.38819,0.43653,0.492439,0.51075,0.495613,0.482185,0.475105,0.462654,0.439704,0.42652,0.416022,0.421149,0.457038,0.5066,0.546151,0.562509,0.560311,0.558602,0.554696,0.547372,0.546151,0.534188,0.512703,0.488533,0.483406,0.50074,0.506355,0.493904,0.473396,0.445808,0.415045,0.396735,0.394049,0.384039,0.416022,0.468025,0.504891,0.536873,0.553475,0.551034,0.541268,0.5066,
0.363531,0.384771,0.44947,0.478767,0.469001,0.457038,0.455573,0.484627,0.55787,0.653086,0.744152,0.771008,0.731212,0.647227,0.552743,0.48365,0.415534,0.306889,0.257084,0.266361,0.252934,0.200443,0.237064,0.371588,0.534432,0.663828,0.718029,0.702403,0.64918,0.583017,0.487312,0.407233,0.35938,0.354742,0.380377,0.390387,0.394781,0.434821,0.511238,0.566659,0.580331,0.57789,0.60621,0.641611,0.67628,0.71339,0.750988,0.735363,0.664317,0.562509,0.462898,0.372808,0.289799,0.227298,0.203372,0.188968,0.140871,0.146487,0.229984,0.408698,0.575937,0.646006,0.635996,0.568612,0.500252,0.457771,0.407477,0.330327,0.287358,0.2981,0.309575,0.338872,0.362554,0.448737,0.559335,0.656748,0.716564,0.745373,0.723888,0.667491,0.606455,0.568124,0.589853,0.586435,0.537118,0.479744,0.429938,0.383062,0.375494,0.406256,0.388678,0.326421,0.28809,0.295903,0.350591,0.435798,0.48072,0.495613,0.477302,0.427985,0.389654,0.434333,0.513191,0.522225,0.494636,0.479744,0.523201,0.570565,0.598642,0.588388,0.56495,0.516121,0.445808,0.389166,0.388922,0.446784,0.491951,0.508797,0.539071,0.579355,0.561532,0.495857,0.419196,0.440681,0.45948,0.464363,0.443854,0.408209,0.423102,0.452888,0.431891,0.4065,0.389899,0.350591,0.287358,0.210697,0.173098,0.198245,0.229496,0.284428,0.388922,0.49659,0.589364,0.659678,0.679454,0.655283,0.615488,0.588876,0.591073,0.605478,0.60621,0.596445,0.574716,0.568124,0.567636,0.554452,0.536629,0.510018,0.493904,0.494636,0.509773,0.588144,0.653086,0.657481,0.607187,0.55201,0.504158,0.422858,0.330327,0.275883,0.228519,0.153811,0.143557,0.218265,0.253666,0.22388,0.201419,0.215335,0.252689,0.310063,0.396735,0.463142,0.55494,0.661875,0.746349,0.806897,0.825696,0.784436,0.685069,0.547127,0.436774,0.379644,0.354986,0.346929,0.383795,0.433112,0.463874,0.475105,0.513436,0.585946,0.612802,0.587167,0.542245,0.51783,0.492683,0.465339,0.455085,0.482673,0.525154,0.53492,0.493172,0.463142,0.528573,0.625498,0.662364,0.605966,0.489265,0.32813,0.163577,0.0949722,0.190433,0.361334,0.484871,0.526619,0.541024,0.58912,0.653819,0.657969,0.583993,0.482185,0.354009,0.289799,0.275395,0.227054,0.169436,0.203616,0.295659,0.393561,0.4878,0.538094,0.550301,0.544686,0.555917,0.586923,0.620371,0.642588,0.635019,0.616953,0.548592,0.444587,0.365972,0.351812,0.345708,0.327398,0.346441,0.388922,0.488777,0.615488,0.650889,0.630625,0.611582,0.635752,0.708507,0.721202,0.650156,0.546151,0.458991,0.370855,0.261967,0.197513,0.18555,0.207767,0.22388,0.281498,0.388678,0.489021,0.511482,0.463142,0.449958,0.458991,0.537118,0.593515,0.596445,0.595712,0.589364,0.570809,0.524178,0.478767,0.43946,0.40528,0.368658,0.321294,0.302739,0.333501,0.405035,0.467292,0.504158,0.531991,0.544442,0.554696,0.583749,0.614023,0.641855,0.659922,0.630137,0.55494,0.489265,0.450446,0.430671,0.410407,0.377203,0.33106,0.267826,0.254154,0.324224,0.491707,0.628428,0.665293,0.655283,0.65919,0.668711,0.621836,0.560067,0.489509,0.396735,0.34522,0.326421,0.306889,0.337163,0.397223,0.42359,0.419196,0.437995,0.451667,0.435065,0.410407,0.397711,0.428962,0.474128,0.496101,0.516121,0.550301,0.576181,0.589364,0.668467,0.769543,0.827893,0.800061,0.73756,0.656748,0.523445,0.373541,0.263432,0.166506,0.0346685,0,0.000488289,0.000244144,0.195071,0.376715,0.506111,0.588388,0.62501,0.615244,0.607431,0.582528,0.616464,0.763928,0.859632,0.818372,0.668223,0.538582,0.483406,0.455818,0.41529,0.370611,0.321538,0.279545,0.302739,0.366949,0.389654,0.390875,0.409186,0.408453,0.445563,0.531991,0.544442,0.432136,0.241459,0.118166,0.132082,0.233646,0.310063,0.360113,0.409186,0.480232,0.615732,0.736584,0.759045,0.712413,0.667979,0.647715,0.612802,0.583017,0.577157,0.562997,0.534432,0.451179,0.37525,0.360113,0.383062,0.420172,0.448981,0.469978,0.462409,0.408209,0.360357,0.349859,0.333257,0.312505,0.313237,0.339117,0.397467,0.458259,0.557626,0.647471,0.687999,0.686046,0.625742,0.535897,0.479988,0.466072,0.461921,0.449714,0.428473,0.39942,0.392828,0.460212,0.529061,0.539559,0.512703,0.505135,0.50782,0.499763,0.503914,0.549081,0.609384,0.669688,0.742687,0.822766,0.857191,0.812024,0.732433,0.638926,0.524666,0.36524,0.203616,0.0717784,0.000244144,0,0.000244144,0.0974136,0.244877,0.292973,0.302007,0.2981,0.333257,0.379889,0.403326,0.418952,0.467536,0.522225,0.564218,0.667735,0.798596,0.905043,0.929702,0.858167,0.724865,0.590341,0.548348,0.489998,0.380377,0.296391,0.237552,0.273686,0.380133,0.451423,0.421881,0.35938,0.345464,0.438972,0.531014,0.55494,0.541512,0.552987,0.571786,0.598886,0.701427,0.712413,0.57789,0.379156,0.178225,0.0412604,0.00195315,0.0449226,0.0700694,0.0969253,0.0925307,0.140139,0.291997,0.442878,0.502205,0.535653,0.596689,0.674083,0.745373,0.792004,0.812268,0.826673,0.8318,0.795666,0.71046,0.585946,0.476081,0.401617,0.389166,0.387945,0.34107,0.258061,0.288823,0.397711,0.489509,0.526864,0.527108,0.544198,0.588388,0.694347,0.840589,0.939467,0.939467,0.940444,0.939956,0.690684,0.375982,0.176761,0.0532235,0,0.000244144,0,0.000488289,0.000488289,0.000244144,0.205325,0.473884,0.613046,0.646006,0.63624,0.663096,0.689708,0.619638,0.492439,0.433112,0.413092,0.3794,0.389899,0.449714,0.479744,0.466072,0.481697,0.550057,0.680919,0.857679,0.926528,0.921645,0.917739,0.881605,0.804944,0.675547,0.521981,0.35938,0.203861,0.0280766,0.000244144,0.000244144,0,0.000976577,0.144778,0.273198,0.380133,0.48365,0.569833,0.606455,0.618418,0.617197,0.622324,0.648692,0.672374,0.667247,0.657969,0.757092,0.813001,0.812512,0.759045,0.634043,0.539071,0.511971,0.4607,0.350103,0.229496,0.158206,0.140871,0.166995,0.171633,0.172366,0.173342,0.17554,0.167971,0.104738,0.111574,0.23389,0.37525,0.452399,0.457771,0.472175,0.586435,0.776623,0.891859,0.876967,0.810071,0.781262,0.723156,0.573007,0.41944,0.341558,0.280278,0.247074,0.287846,0.359625,0.453376,0.533944,0.57911,0.579599,0.522713,0.396246,0.371588,0.488289,0.603281,0.650401,0.641855,0.654063,0.630625,0.564706,0.493172,0.450202,0.4065,0.386969,0.417487,0.467781,0.509773,0.560311,0.555673,0.500252,0.436042,0.386969,0.353521,0.326421,0.28687,0.237552,0.236088,0.280522,0.337652,0.399664,0.45069,0.487556,0.542,0.603037,0.606699,0.576425,0.527596,0.473396,0.44239,0.423346,0.427985,0.487312,0.550057,0.552255,0.53492,0.549813,0.55787,0.546639,0.533455,0.537362,0.546639,0.575204,0.706554,0.79762,0.796155,0.718761,0.616464,0.465827,0.295903,0.187991,0.112062,0.0432136,0,0,0.128176,0.410407,0.677256,0.802747,0.809339,0.766369,0.749523,0.718029,0.674327,0.622324,0.501228,0.322271,0.245121,0.267338,0.348638,0.405035,0.419928,0.407477,0.391608,0.35816,0.309331,0.345464,0.409918,0.411627,0.403326,0.466804,0.498299,0.435309,0.342779,0.313481,0.337896,0.368902,0.416266,0.461677,0.498787,0.516121,0.513191,0.49659,0.52076,0.575448,0.624521,0.650645,0.580087,0.485847,0.509773,0.561776,0.564462,0.537118,0.434821,0.336919,0.310552,0.314946,0.307378,0.328618,0.374273,0.397467,0.422614,0.458259,0.515145,0.568368,0.598886,0.606455,0.602792,0.603769,0.618662,0.630869,0.646738,0.670176,0.690929,0.680186,0.612558,0.519051,0.441169,0.393561,0.380133,0.370367,0.37818,0.436286,0.493904,0.561532,0.671153,0.762219,0.78468,0.694591,0.598642,0.553231,0.508064,0.432624,0.34107,0.250248,0.100832,0.0246586,0.089601,0.136965,0.129397,0.0920424,0.0715343,0.116457,0.213138,0.300298,0.423102,0.545418,0.614023,0.627207,0.60499,0.579599,0.548348,0.554452,0.647959,0.766613,0.812024,0.78883,0.739269,0.706554,0.660899,0.5608,0.447272,0.347662,0.237308,0.137942,0.111086,0.164797,0.239506,0.273442,0.302983,0.400885,0.584482,0.802991,0.91017,0.875502,0.778088,0.703136,0.641367,0.539803,0.377203,0.232425,0.170657,0.148196,0.165286,0.216556,0.283452,0.377447,0.481697,0.570565,0.641123,0.650645,0.597177,0.568124,0.550546,0.510506,0.528328,0.582773,0.599619,0.567636,0.528328,0.502205,0.482918,0.449714,0.409674,0.382086,0.365484,0.34107,0.331548,0.365972,0.413336,0.440436,0.457282,0.486336,0.535164,0.605722,0.643809,0.632822,0.617929,0.630625,0.634531,0.577157,0.46656,0.36817,0.314702,0.275395,0.243168,0.25684,0.333989,0.406256,0.459968,0.502205,0.522713,0.532479,0.537606,0.532479,0.517342,0.499763,0.475593,0.444587,0.428229,0.420661,0.439704,0.472663,0.489509,0.490486,0.482185,0.460212,0.430426,0.416022,0.436042,0.471687,0.508064,0.52784,0.515389,0.48365,0.457282,0.44947,0.451423,0.457771,0.475349,0.495613,0.511971,0.501472,0.477058,0.481941,0.498054,0.484871,0.469734,0.462898,0.47071,0.485603,0.494148,0.501228,0.507576,0.508797,0.502937,0.497566,0.489998,0.483406,0.478035,0.475593,0.476081,0.475105,0.467292,0.456306,0.451911,0.453132,0.45362,0.446052,0.428473,0.42359,0.433356,0.44947,0.461921,0.463874,0.458259,0.454841,0.454353,0.452644,0.453132,0.458747,0.467048,0.475105,0.482673,0.491951,0.496345,0.497322,0.500252,0.503426,0.505867,0.50782,0.504646,0.497566,0.490486,0.487068,0.48658,0.484627,0.482673,0.479255,0.477058,0.47071,0.463874,0.460212,0.457771,0.453132,0.447272,0.439704,0.437018,0.437018,0.438483,0.438727,0.439704,0.442634,0.446296,0.448005,0.450446,0.451667,0.455329,0.459724,0.459724,0.466316,0.475837,0.484627,0.487312,0.488533,0.494392,0.501228,0.504402,0.499031,0.497566,0.502693,0.514656,0.515389,0.5066,0.499519,0.492927,0.490242,0.484871,0.479011,0.475105,0.470466,0.461677,
