0.437995,0.435798,0.435554,0.434821,0.436286,0.438727,0.441169,0.443854,0.448493,0.453376,0.458259,0.463874,0.46949,0.472908,0.475837,0.481453,0.486336,0.490486,0.493416,0.498299,0.500008,0.504402,0.504402,0.503914,0.504402,0.503426,0.501472,0.498054,0.494392,0.488289,0.484627,0.478767,0.472908,0.468025,0.465095,0.461677,0.454108,0.449714,0.446784,0.443366,0.441169,0.438483,0.43653,0.435309,0.436286,0.436774,0.438239,0.440436,0.443366,0.448981,0.45362,0.457771,0.464851,0.469734,0.473396,0.476326,0.481209,0.487312,0.491463,0.494881,0.498299,0.500252,0.503426,0.504402,0.505135,0.505135,0.504646,0.501472,0.498054,0.494148,0.4878,0.484627,0.479011,0.473152,0.468513,0.465827,0.463142,0.455085,0.45069,0.447028,0.443366,0.440925,0.438727,0.436286,0.434577,0.434821,0.436286,0.437995,0.440925,0.443366,0.44947,0.454108,0.458503,0.464851,0.470222,0.473152,0.475837,0.482429,0.487556,0.49073,0.493416,0.498787,0.50074,0.503914,0.504158,0.50367,0.502449,0.502937,0.50074,0.497322,0.493416,0.488777,0.484138,0.479011,0.472419,0.469001,0.466316,0.462409,0.454597,0.450202,0.44654,0.443366,0.440681,0.437018,0.435798,0.433845,0.433356,0.435065,0.437751,0.441169,0.444587,0.449958,0.45362,0.458991,0.464851,0.47071,0.473884,0.476326,0.482673,0.488533,0.491951,0.494392,0.497566,0.500496,0.503914,0.505135,0.504646,0.504646,0.50367,0.500984,0.498299,0.493904,0.488289,0.484138,0.478523,0.471931,0.468269,0.465095,0.461433,0.454597,0.450202,0.447761,0.444343,0.440436,0.43653,0.434333,0.434089,0.434821,0.436774,0.439216,0.442145,0.444831,0.450446,0.454841,0.458991,0.466072,0.471199,0.474372,0.476326,0.482185,0.487312,0.49073,0.49366,0.496834,0.498787,0.502693,0.504402,0.504646,0.504158,0.502937,0.501961,0.49781,0.492927,0.4878,0.484382,0.478279,0.472175,0.468025,0.465095,0.461189,0.45362,0.450446,0.447272,0.442634,0.441657,0.437263,0.436042,0.435554,0.434821,0.435798,0.438239,0.441413,0.443854,0.450446,0.454353,0.459724,0.466072,0.47071,0.473396,0.476326,0.482918,0.488777,0.491951,0.495125,0.498543,0.501472,0.504646,0.505135,0.504646,0.503914,0.501961,0.500496,0.498299,0.492927,0.487312,0.483406,0.477546,0.471443,0.467536,0.464607,0.460456,0.453864,0.449714,0.44654,0.443366,0.441413,0.437995,0.436286,0.434821,0.435065,0.438239,0.439216,0.440681,0.444343,0.450446,0.454597,0.45948,0.466316,0.469978,0.473152,0.476081,0.482918,0.488045,0.49073,0.494148,0.498299,0.501228,0.503914,0.505135,0.505379,0.504646,0.502937,0.500496,0.496345,0.491951,0.487556,0.482673,0.477058,0.472663,0.467536,0.463874,0.460212,0.452888,0.448981,0.447272,0.443122,0.441169,0.437263,0.435798,0.435309,0.435798,0.43653,0.43946,0.441901,0.444831,0.450446,0.454597,0.459236,0.466072,0.470222,0.473884,0.476326,0.484871,0.488289,0.49073,0.494148,0.49781,0.50074,0.50367,0.504646,0.504646,0.504891,0.502937,0.500008,0.49781,0.493172,0.4878,0.48365,0.477546,0.471687,0.468025,0.465095,0.4607,0.453376,0.449714,0.446784,0.44361,0.441169,0.437751,0.436774,0.434577,0.435798,0.437507,0.438727,0.441169,0.445075,0.450935,0.454841,0.459968,0.466072,0.470466,0.472908,0.476326,0.482673,0.4878,0.489998,0.49366,0.49781,0.500496,0.50367,0.503914,0.505867,0.504402,0.502937,0.50074,0.497566,0.492683,0.4878,0.482429,0.476814,0.471687,0.468757,0.465339,0.460456,0.453376,0.449714,0.446784,0.442878,0.440192,0.437018,0.435798,0.435309,0.435065,0.437751,0.438727,0.440681,0.444587,0.45069,0.454353,0.460456,0.467536,0.471443,0.474372,0.477546,0.484627,0.489509,0.492439,0.495857,0.499031,0.501472,0.504891,0.504402,0.504646,0.503914,0.502693,0.500496,0.496834,0.491463,0.487068,0.482429,0.475837,0.47071,0.467781,0.464118,0.458991,0.452155,0.448493,0.446296,0.442634,0.440681,0.436774,0.435309,0.435309,0.435309,0.436774,0.438972,0.441413,0.445075,0.45069,0.455085,0.461189,0.467292,0.472419,0.474861,0.477302,0.484627,0.489754,0.492439,0.495613,0.498787,0.500984,0.50367,0.505867,0.505135,0.502937,0.502205,0.499031,0.495369,0.490974,0.487312,0.482429,0.476814,0.471443,0.468513,0.465095,0.459968,0.452888,0.448493,0.445319,0.441413,0.439216,0.435798,0.435798,0.435065,0.435554,0.436774,0.43946,0.441169,0.445319,0.448981,0.454597,0.460945,0.467048,0.472175,0.474372,0.477546,0.484382,0.488777,0.491463,0.496345,0.498299,0.501717,0.50367,0.504891,0.505623,0.504402,0.503182,0.50074,0.496834,0.491707,0.487312,0.481697,0.476326,0.471443,0.467292,0.464363,0.458503,0.453132,0.450202,0.447272,0.442634,0.441169,0.43653,0.435554,0.434821,0.434821,0.437507,0.438972,0.441413,0.446052,0.451423,0.454841,0.460212,0.466804,0.471443,0.474617,0.47779,0.484382,0.489509,0.492195,0.496345,0.499519,0.502449,0.504891,0.505135,0.505623,0.504646,0.502937,0.50074,0.497078,0.490242,0.485603,0.481209,0.475349,0.470222,0.466804,0.463874,0.458503,0.452888,0.448493,0.445075,0.441413,0.438727,0.434821,0.434821,0.435309,0.435554,0.436774,0.439704,0.443122,0.44654,0.451911,0.455573,0.461677,0.469245,0.472908,0.474861,0.478523,0.485115,0.489509,0.492927,0.496101,0.498299,0.502449,0.504402,0.504646,0.503914,0.503914,0.502205,0.499519,0.496101,0.490242,0.48658,0.481453,0.475105,0.469978,0.46656,0.464118,0.457527,0.451423,0.448737,0.445563,0.441657,0.440681,0.436286,0.436042,0.435798,0.435798,0.438483,0.43946,0.442145,0.44654,0.452888,0.45655,0.463142,0.468269,0.472419,0.474861,0.478767,0.485359,0.488533,0.492683,0.495857,0.498543,0.502205,0.50367,0.504891,0.504646,0.501961,0.50074,0.498299,0.494636,0.489509,0.484871,0.48072,0.474617,0.469734,0.468513,0.464607,0.458259,0.452644,0.449958,0.446052,0.442634,0.440436,0.43653,0.43653,0.435309,0.436042,0.43653,0.438727,0.441169,0.44654,0.451667,0.455818,0.462165,0.467292,0.471931,0.474861,0.478767,0.486091,0.489754,0.492439,0.496834,0.498543,0.502693,0.503914,0.504402,0.50367,0.503914,0.502449,0.499519,0.496345,0.491218,0.486091,0.481453,0.474861,0.469978,0.467292,0.464607,0.457527,0.452155,0.449226,0.445808,0.440925,0.438972,0.436042,0.435065,0.436286,0.435554,0.437751,0.439216,0.441169,0.447272,0.452399,0.456306,0.462409,0.468757,0.472663,0.475349,0.4795,0.486336,0.489509,0.49366,0.497322,0.499275,0.503182,0.504158,0.504891,0.505135,0.502937,0.500984,0.498299,0.494636,0.489265,0.486336,0.481453,0.474861,0.470466,0.466804,0.464363,0.457038,0.452155,0.447761,0.445563,0.442145,0.440192,0.436774,0.436774,0.436042,0.435798,0.43653,0.43946,0.441413,0.44654,0.451667,0.455818,0.462165,0.467292,0.471931,0.475837,0.478767,0.486091,0.489998,0.493416,0.496345,0.499031,0.50367,0.504402,0.505867,0.505135,0.503914,0.502205,0.500008,0.495125,0.489754,0.485359,0.480476,0.474861,0.46949,0.466804,0.464118,0.45655,0.451423,0.448493,0.444343,0.440681,0.437507,0.433845,0.434089,0.434821,0.436774,0.438483,0.440436,0.44361,0.448493,0.453376,0.457038,0.462654,0.469245,0.472175,0.474617,0.479255,0.484627,0.489998,0.493416,0.496345,0.498543,0.503182,0.504646,0.504891,0.505135,0.503914,0.502693,0.499763,0.496101,0.490242,0.485847,0.48072,0.473152,0.468269,0.465339,0.462409,0.455329,0.451423,0.448249,0.445319,0.443366,0.439948,0.435798,0.435065,0.434821,0.435798,0.437507,0.440192,0.442634,0.447272,0.452644,0.457038,0.463142,0.469001,0.471443,0.475593,0.4795,0.485847,0.489998,0.492927,0.497078,0.499519,0.503182,0.504646,0.504646,0.505379,0.50367,0.502205,0.499275,0.495857,0.489998,0.486336,0.480476,0.47364,0.46949,0.466072,0.462654,0.455329,0.451179,0.448249,0.445319,0.441413,0.437995,0.435554,0.435798,0.434577,0.435798,0.437995,0.439216,0.442145,0.448005,0.454108,0.457282,0.464851,0.469734,0.472663,0.475349,0.481209,0.486824,0.490486,0.492927,0.496834,0.498787,0.503914,0.504646,0.505135,0.504158,0.502693,0.50074,0.498054,0.49366,0.489021,0.484138,0.479988,0.472908,0.469001,0.465339,0.462409,0.455573,0.45069,0.447761,0.445075,0.442634,0.439216,0.43653,0.436042,0.434821,0.435554,0.437751,0.440681,0.444099,0.448493,0.453376,0.458015,0.463874,0.468513,0.471931,0.475349,0.480232,0.487068,0.490242,0.494636,0.497322,0.499275,0.503182,0.503914,0.504646,0.504646,0.503914,0.501717,0.498787,0.494148,0.488533,0.48365,0.4795,0.472908,0.468025,0.464851,0.462165,0.455085,0.450446,0.448005,0.444587,0.441169,0.438483,0.435554,0.435554,0.435554,0.43653,0.437751,0.439948,0.44361,0.449226,0.454108,0.457527,0.463142,0.469734,0.472908,0.475593,0.481453,0.487556,0.491463,0.494148,0.497566,0.500252,0.504158,0.504891,0.505379,0.506111,0.503182,0.501228,0.49781,0.493904,0.489509,0.484871,0.4795,0.473152,0.469734,0.466072,0.46363,0.455085,0.451179,0.448249,0.444587,0.441413,0.437507,0.436774,0.435554,0.435798,0.435554,0.437507,0.440192,0.44239,0.447761,0.451667,0.456306,0.463142,0.468757,0.472663,0.476814,0.482185,0.487556,0.491218,0.494392,0.498299,0.500252,0.504402,0.504402,0.505135,0.504646,0.50367,0.501228,0.498299,0.494392,0.4878,0.484382,0.4795,0.472908,0.469001,0.465827,0.462654,0.454841,0.448981,0.446784,0.44361,0.441169,0.438483,0.436042,0.435554,0.435065,0.436774,0.438239,0.440925,0.445075,0.449226,0.454353,0.458015,0.465339,0.469734,0.47364,0.475837,0.480964,0.487556,0.490974,0.494148,0.498054,0.50074,0.504158,0.504158,0.504891,0.503426,0.502449,0.501961,0.498787,0.49366,0.488045,0.484382,0.478523,0.471199,0.468513,0.464607,0.461189,0.454108,0.450202,0.447272,0.44361,0.441169,
0.501961,0.50367,0.505623,0.505135,0.504402,0.501961,0.499031,0.496345,0.491463,0.486091,0.483162,0.475593,0.47071,0.467536,0.465095,0.458747,0.452399,0.448737,0.44654,0.442145,0.439948,0.436286,0.435798,0.435798,0.435554,0.43653,0.43946,0.441657,0.44654,0.452399,0.455818,0.462165,0.467536,0.471931,0.474617,0.47779,0.485603,0.489754,0.493172,0.49659,0.499519,0.502449,0.503914,0.504891,0.504646,0.503182,0.501472,0.498299,0.494392,0.488533,0.484871,0.479988,0.474372,0.469245,0.467292,0.465095,0.458259,0.452644,0.449714,0.446296,0.442145,0.440192,0.436774,0.437018,0.435798,0.436286,0.43653,0.438727,0.441413,0.446052,0.452155,0.456306,0.461189,0.468025,0.471687,0.474128,0.477302,0.484871,0.489754,0.492683,0.497322,0.499763,0.502449,0.504158,0.504402,0.504402,0.503914,0.502693,0.499275,0.495613,0.490486,0.487068,0.481697,0.476081,0.47071,0.467536,0.464363,0.457527,0.452155,0.448737,0.445808,0.441901,0.439948,0.436774,0.43653,0.435309,0.435065,0.437263,0.439216,0.441657,0.447517,0.452155,0.45655,0.462165,0.467536,0.470954,0.473884,0.47779,0.484871,0.489509,0.492439,0.497078,0.498299,0.502205,0.504402,0.505379,0.505135,0.504158,0.501961,0.498787,0.49659,0.490486,0.48658,0.480476,0.475837,0.470222,0.46656,0.464118,0.458259,0.452644,0.448493,0.445075,0.441413,0.437995,0.435309,0.434821,0.434577,0.43653,0.436042,0.438483,0.442145,0.446784,0.452399,0.45655,0.462165,0.468025,0.472175,0.475105,0.478767,0.48658,0.490486,0.492927,0.496101,0.498299,0.502449,0.50367,0.504402,0.504646,0.503914,0.503182,0.499519,0.495613,0.489998,0.486336,0.481209,0.474128,0.470222,0.467536,0.464363,0.457038,0.451667,0.448249,0.445808,0.442145,0.438972,0.435798,0.436042,0.435798,0.436042,0.438239,0.439216,0.442145,0.447028,0.452399,0.456306,0.462409,0.468025,0.471931,0.47364,0.477302,0.485115,0.489265,0.492683,0.496834,0.499031,0.503426,0.504646,0.505379,0.506111,0.503426,0.502205,0.499763,0.495857,0.489754,0.486336,0.480232,0.47364,0.469245,0.465095,0.462654,0.456062,0.451911,0.447761,0.444343,0.441657,0.438727,0.436774,0.43653,0.43653,0.43653,0.437995,0.439704,0.44239,0.447517,0.451911,0.456306,0.462898,0.468025,0.471931,0.474617,0.479011,0.48658,0.490974,0.493416,0.497078,0.498787,0.502693,0.503182,0.504402,0.503426,0.504158,0.500984,0.498054,0.494636,0.488777,0.485115,0.480964,0.473884,0.469978,0.46656,0.46363,0.457282,0.452399,0.449714,0.445808,0.441657,0.438727,0.43653,0.436286,0.435309,0.436774,0.437507,0.440436,0.442634,0.447761,0.453132,0.457527,0.462165,0.468025,0.472175,0.474861,0.479988,0.48658,0.490486,0.49366,0.497078,0.499275,0.503182,0.504158,0.504646,0.504158,0.50367,0.501228,0.499031,0.494636,0.489265,0.485847,0.480232,0.473884,0.469001,0.465583,0.462898,0.456306,0.451911,0.447761,0.445563,0.441901,0.438972,0.437018,0.436042,0.435554,0.435065,0.437507,0.439948,0.441413,0.447761,0.452888,0.457282,0.463386,0.469001,0.472663,0.474617,0.4795,0.486091,0.490486,0.494148,0.497566,0.499763,0.503182,0.50367,0.505135,0.505135,0.504402,0.501717,0.499275,0.494881,0.489509,0.484627,0.479744,0.473152,0.467292,0.464851,0.462654,0.455573,0.451179,0.447272,0.444343,0.440681,0.438239,0.43653,0.435309,0.435065,0.435798,0.438727,0.439216,0.440436,0.449226,0.452644,0.457038,0.464118,0.469734,0.472663,0.474617,0.4795,0.48658,0.490486,0.493172,0.496834,0.499519,0.503182,0.504891,0.505379,0.504646,0.502937,0.501472,0.500496,0.494636,0.489265,0.486091,0.479744,0.473152,0.469001,0.465583,0.462898,0.455573,0.451667,0.448493,0.444587,0.440925,0.436286,0.435798,0.435065,0.435554,0.435309,0.437751,0.440192,0.44239,0.448249,0.453376,0.457282,0.464118,0.468513,0.472663,0.475837,0.48072,0.487312,0.490974,0.49366,0.497566,0.499763,0.50367,0.504158,0.505623,0.505135,0.503426,0.500984,0.498543,0.49366,0.488289,0.484382,0.479744,0.473396,0.46949,0.464851,0.462165,0.453864,0.45069,0.447761,0.444099,0.440436,0.437995,0.436774,0.435554,0.436286,0.437263,0.437995,0.440925,0.444587,0.450202,0.45362,0.457527,0.464118,0.469001,0.47364,0.476081,0.482673,0.488289,0.490486,0.49366,0.498299,0.499519,0.503182,0.503914,0.505135,0.504646,0.502693,0.50074,0.498543,0.494636,0.488533,0.484871,0.4795,0.472908,0.468269,0.465583,0.463142,0.455329,0.450935,0.447517,0.443854,0.441657,0.437751,0.435309,0.435309,0.435065,0.435554,0.437995,0.440681,0.444343,0.44947,0.454108,0.458259,0.464851,0.469245,0.472663,0.475349,0.481697,0.488289,0.490486,0.493904,0.498054,0.500008,0.504158,0.505379,0.504891,0.504646,0.502449,0.500984,0.498299,0.493904,0.488777,0.484138,0.479744,0.472663,0.468757,0.466072,0.463142,0.454353,0.450446,0.447272,0.444587,0.441657,0.438483,0.436286,0.435309,0.434577,0.435798,0.437995,0.43946,0.443122,0.449226,0.45362,0.458259,0.464607,0.469734,0.473884,0.476081,0.482429,0.487556,0.491463,0.49366,0.498543,0.50074,0.503914,0.504646,0.504402,0.504646,0.503182,0.501228,0.497322,0.492439,0.48658,0.482429,0.47657,0.470954,0.468025,0.465339,0.462654,0.454353,0.450446,0.448249,0.444587,0.441413,0.437751,0.436286,0.435554,0.435065,0.435798,0.438483,0.440681,0.443854,0.449958,0.454597,0.459236,0.464851,0.469978,0.472908,0.476326,0.482429,0.48658,0.491463,0.494148,0.498787,0.50074,0.504891,0.504158,0.504891,0.504891,0.503182,0.500496,0.498054,0.491951,0.488289,0.484382,0.478523,0.472663,0.468757,0.465827,0.461921,0.453376,0.451179,0.447272,0.442878,0.440681,0.437263,0.435309,0.434577,0.434821,0.437018,0.438239,0.440681,0.445075,0.449958,0.454108,0.458747,0.465827,0.471199,0.472908,0.474861,0.48072,0.486824,0.49073,0.494148,0.498543,0.50074,0.504158,0.503914,0.504402,0.503914,0.502449,0.50074,0.497078,0.492927,0.487312,0.483162,0.47657,0.469734,0.467292,0.463874,0.462165,0.454108,0.45069,0.448249,0.444099,0.441169,0.437507,0.436042,0.436042,0.435554,0.435798,0.438483,0.440681,0.444343,0.450446,0.454597,0.459724,0.46656,0.47071,0.474372,0.47657,0.483406,0.488289,0.491707,0.495369,0.498787,0.501717,0.504402,0.505379,0.505135,0.504158,0.502693,0.500252,0.49781,0.491951,0.4878,0.48365,0.478035,0.471931,0.468025,0.465095,0.462165,0.453864,0.45069,0.44654,0.442634,0.441169,0.436774,0.434821,0.434821,0.435065,0.436774,0.437995,0.440925,0.444831,0.450446,0.453864,0.458991,0.465095,0.47071,0.473884,0.476326,0.483162,0.488289,0.491218,0.495125,0.499519,0.501472,0.504402,0.50367,0.504646,0.504402,0.502449,0.500496,0.49781,0.492439,0.48658,0.482918,0.477058,0.471199,0.467781,0.465095,0.4607,0.45362,0.449714,0.446296,0.44361,0.441169,0.438239,0.437018,0.43653,0.435554,0.436774,0.438727,0.440925,0.445808,0.449958,0.454108,0.45948,0.465827,0.470954,0.473884,0.47657,0.483406,0.4878,0.491951,0.494392,0.497566,0.501472,0.503914,0.504158,0.503914,0.503914,0.501228,0.500496,0.497078,0.491463,0.4878,0.484382,0.47779,0.472175,0.468269,0.465827,0.4607,0.453132,0.449714,0.44654,0.442878,0.441413,0.437507,0.435309,0.435554,0.435065,0.437751,0.438239,0.441169,0.445319,0.451179,0.454841,0.459724,0.467536,0.470466,0.474372,0.47779,0.48365,0.488289,0.490974,0.494881,0.498299,0.50074,0.503914,0.504891,0.50367,0.503914,0.502205,0.50074,0.497322,0.492683,0.487556,0.483162,0.476081,0.470466,0.467781,0.465339,0.460456,0.453864,0.448981,0.447272,0.443122,0.440192,0.436042,0.434821,0.433845,0.433845,0.435554,0.437995,0.440436,0.445075,0.450935,0.454353,0.459724,0.466316,0.470222,0.473152,0.476326,0.484138,0.488777,0.491463,0.494392,0.498299,0.501717,0.505135,0.505135,0.505623,0.504646,0.501961,0.500496,0.49781,0.491951,0.487312,0.483162,0.477058,0.471443,0.467781,0.464851,0.459236,0.452644,0.44947,0.44654,0.442878,0.440925,0.436774,0.435554,0.434821,0.434821,0.436042,0.438239,0.441413,0.445319,0.451179,0.454597,0.459968,0.467292,0.470222,0.473396,0.47657,0.484627,0.489509,0.492683,0.495613,0.498787,0.501717,0.504891,0.504646,0.505867,0.504646,0.502205,0.500496,0.497322,0.490486,0.486336,0.480964,0.474617,0.469978,0.465583,0.463142,0.458991,0.452644,0.449226,0.446296,0.44239,0.441169,0.43653,0.435798,0.435309,0.435554,0.436286,0.43946,0.441657,0.445808,0.451423,0.455329,0.461677,0.467781,0.471443,0.474861,0.47779,0.484871,0.489021,0.493416,0.495125,0.498543,0.501717,0.504402,0.503914,0.504646,0.50367,0.502449,0.50074,0.497566,0.491463,0.48658,0.482429,0.476326,0.471443,0.467536,0.464607,0.45948,0.45362,0.449958,0.446052,0.443122,0.439948,0.436286,0.436042,0.434821,0.435309,0.436774,0.437995,0.440925,0.445075,0.450935,0.454108,0.460212,0.467292,0.471443,0.473884,0.477302,0.484871,0.488533,0.492439,0.495857,0.499031,0.501961,0.505135,0.505135,0.505135,0.503182,0.502205,0.500252,0.496345,0.491218,0.486336,0.482673,0.475837,0.47071,0.467292,0.464363,0.458747,0.453132,0.448737,0.445563,0.44239,0.441413,0.436042,0.435554,0.435309,0.434577,0.435554,0.438727,0.443122,0.446296,0.451667,0.455085,0.461189,0.468513,0.471931,0.474128,0.478035,0.486336,0.489509,0.492683,0.496345,0.498787,0.501961,0.503914,0.504402,0.505135,0.504158,0.502205,0.498543,0.494636,0.490242,0.486336,0.482185,0.47657,0.470954,0.467292,0.464118,0.458259,0.453376,0.450202,0.445563,0.442145,0.439948,0.436042,0.434577,0.434577,0.434821,0.437263,0.439216,0.44239,0.447272,0.451911,0.456306,0.461677,0.467536,0.471443,0.474128,0.478523,0.485115,0.489509,0.492927,0.496101,0.498054,
0.504891,0.505623,0.505867,0.505135,0.50367,0.50074,0.499519,0.494392,0.488533,0.484138,0.478279,0.472175,0.468269,0.465095,0.463142,0.454353,0.451423,0.448005,0.444343,0.441413,0.437751,0.435554,0.434577,0.434577,0.435309,0.437995,0.440436,0.443854,0.448249,0.453376,0.458503,0.464363,0.469978,0.473152,0.475349,0.481697,0.487556,0.490974,0.494392,0.497566,0.498787,0.502937,0.505135,0.505623,0.504402,0.50367,0.501472,0.498299,0.493416,0.488289,0.48365,0.47779,0.472663,0.469245,0.466072,0.461921,0.455329,0.450446,0.447028,0.443366,0.439948,0.436774,0.435554,0.434821,0.435309,0.436042,0.438727,0.440192,0.443366,0.448249,0.452399,0.457771,0.462898,0.469245,0.472419,0.475593,0.482429,0.488289,0.491463,0.494148,0.498543,0.500252,0.503426,0.504158,0.505135,0.504158,0.502937,0.501472,0.498054,0.493904,0.488289,0.484382,0.479011,0.472663,0.468757,0.464851,0.461433,0.454353,0.45069,0.447517,0.442878,0.441657,0.437751,0.435554,0.434333,0.434577,0.435798,0.437751,0.441413,0.444587,0.451179,0.455085,0.459236,0.465583,0.470222,0.474372,0.476326,0.483406,0.488045,0.490486,0.49366,0.497078,0.498787,0.502693,0.503914,0.505135,0.50367,0.503426,0.500984,0.497566,0.492683,0.48658,0.483162,0.477546,0.471687,0.468513,0.465095,0.462165,0.455085,0.45069,0.447517,0.444099,0.441657,0.437507,0.436286,0.434821,0.434821,0.437018,0.438483,0.440925,0.444831,0.450202,0.453376,0.458015,0.465583,0.47071,0.473396,0.477302,0.484138,0.488045,0.491951,0.494148,0.497322,0.50074,0.504891,0.505135,0.505135,0.504158,0.502937,0.501228,0.497566,0.492683,0.4878,0.484138,0.47779,0.471931,0.467781,0.464118,0.4607,0.453132,0.449958,0.447028,0.443366,0.440436,0.436774,0.435554,0.435554,0.436042,0.437018,0.438483,0.441169,0.444099,0.449714,0.45362,0.458503,0.466316,0.469734,0.473884,0.476081,0.482918,0.486824,0.490974,0.494636,0.499519,0.501228,0.504158,0.504646,0.504402,0.503914,0.502449,0.500984,0.498299,0.493416,0.487068,0.483406,0.477058,0.471931,0.467781,0.464851,0.4607,0.453864,0.450446,0.446784,0.442878,0.441169,0.437751,0.436286,0.435554,0.434821,0.435798,0.437995,0.440925,0.444587,0.44947,0.454108,0.458991,0.466316,0.47071,0.474372,0.476814,0.482918,0.488289,0.491463,0.494148,0.497566,0.50074,0.503914,0.504402,0.504891,0.503914,0.502693,0.50074,0.498543,0.492439,0.488289,0.483162,0.476814,0.471199,0.467536,0.464851,0.4607,0.453864,0.450202,0.44654,0.442634,0.441169,0.436286,0.43653,0.434821,0.435065,0.435798,0.438239,0.440681,0.444099,0.450446,0.454597,0.459968,0.466072,0.470466,0.472908,0.476081,0.482429,0.488045,0.491463,0.495125,0.498787,0.501472,0.504158,0.504646,0.504646,0.504158,0.502205,0.501472,0.498299,0.492927,0.487556,0.483162,0.476814,0.471443,0.468269,0.465095,0.461189,0.45362,0.45069,0.446784,0.443122,0.440681,0.437263,0.435798,0.434821,0.434821,0.437751,0.438727,0.440925,0.444587,0.451179,0.453864,0.459236,0.46656,0.47071,0.475105,0.47779,0.484627,0.488045,0.49073,0.493904,0.497078,0.50074,0.502937,0.504158,0.504646,0.504891,0.502937,0.500496,0.496834,0.491218,0.486336,0.481941,0.475105,0.47071,0.468025,0.465095,0.460456,0.453132,0.449226,0.44654,0.442634,0.440681,0.437018,0.436042,0.434821,0.435798,0.436774,0.439704,0.441413,0.446052,0.451179,0.455329,0.460212,0.467048,0.471199,0.474861,0.477058,0.484138,0.488533,0.490974,0.495369,0.498543,0.501717,0.504158,0.504646,0.504646,0.505135,0.503426,0.50074,0.496834,0.491951,0.487312,0.483162,0.475837,0.471199,0.468025,0.464118,0.459968,0.453376,0.448737,0.44654,0.442634,0.440192,0.436774,0.436042,0.435554,0.434821,0.437507,0.438727,0.441901,0.445808,0.451667,0.454597,0.4607,0.467048,0.471199,0.473884,0.47657,0.48365,0.488045,0.490974,0.494881,0.498054,0.50074,0.504158,0.504891,0.504402,0.503914,0.502449,0.50074,0.496345,0.491951,0.488045,0.482429,0.475837,0.470466,0.467048,0.464607,0.458991,0.452888,0.449714,0.44654,0.443122,0.440436,0.43653,0.435309,0.435554,0.435554,0.436286,0.438483,0.440925,0.445563,0.450446,0.454353,0.460456,0.466804,0.47071,0.473884,0.477058,0.484382,0.489509,0.492439,0.496101,0.499031,0.500984,0.50367,0.505135,0.505379,0.505623,0.502693,0.499763,0.497322,0.491463,0.487312,0.482673,0.475837,0.47071,0.467781,0.463874,0.458747,0.452888,0.448981,0.445075,0.442634,0.440192,0.436774,0.436042,0.43653,0.43653,0.437507,0.438727,0.441901,0.444587,0.451179,0.455085,0.461433,0.467536,0.471687,0.474128,0.477546,0.484627,0.488777,0.492683,0.49659,0.499275,0.501717,0.503426,0.504402,0.504402,0.503914,0.501717,0.499275,0.496345,0.489998,0.487312,0.482673,0.476081,0.471443,0.467781,0.464363,0.458259,0.45362,0.450446,0.447272,0.442878,0.439704,0.436774,0.435554,0.435065,0.435554,0.436042,0.437263,0.440681,0.444343,0.450202,0.454108,0.45948,0.466316,0.47071,0.472663,0.478523,0.484627,0.489754,0.492683,0.496101,0.498054,0.501717,0.503182,0.503426,0.503914,0.503182,0.501472,0.499763,0.497322,0.491463,0.4878,0.482185,0.475837,0.47071,0.467781,0.465339,0.459236,0.452888,0.448981,0.446052,0.44239,0.440925,0.436286,0.436042,0.435554,0.435798,0.437995,0.43946,0.442145,0.446296,0.451179,0.455573,0.461189,0.468513,0.472175,0.474617,0.478523,0.486091,0.488533,0.492195,0.496101,0.498543,0.501961,0.502937,0.504646,0.505623,0.503914,0.501228,0.499031,0.495125,0.490242,0.48658,0.481697,0.475837,0.469978,0.466804,0.463386,0.457038,0.452644,0.448249,0.445563,0.442145,0.439948,0.436774,0.435798,0.436042,0.435554,0.437018,0.438972,0.441657,0.44654,0.452155,0.455573,0.461189,0.468025,0.471687,0.475837,0.479011,0.486336,0.489754,0.491218,0.494881,0.498054,0.502205,0.503426,0.504891,0.504646,0.504158,0.502205,0.500252,0.49659,0.489754,0.487556,0.482429,0.475349,0.469734,0.467048,0.464607,0.457771,0.452155,0.449226,0.445808,0.44239,0.43946,0.435554,0.436042,0.434089,0.434577,0.43653,0.438727,0.441657,0.44654,0.452644,0.456306,0.461921,0.466804,0.470222,0.472908,0.477302,0.484627,0.489509,0.492439,0.49659,0.498543,0.50367,0.504646,0.504891,0.504646,0.503426,0.501961,0.499031,0.49659,0.491463,0.486336,0.481453,0.475837,0.470466,0.467781,0.464363,0.457282,0.451667,0.448493,0.445563,0.442634,0.438727,0.436286,0.435309,0.435798,0.435309,0.437507,0.43946,0.44239,0.447517,0.452155,0.455329,0.461921,0.468025,0.472908,0.475105,0.479988,0.486336,0.489998,0.491951,0.495125,0.49781,0.502693,0.504402,0.505135,0.505135,0.503914,0.502205,0.500008,0.495857,0.490242,0.486336,0.480232,0.474128,0.469978,0.467781,0.464118,0.457038,0.451911,0.448249,0.444587,0.440681,0.437751,0.433845,0.433845,0.434577,0.435554,0.437995,0.438972,0.442634,0.447517,0.453376,0.457282,0.463874,0.468757,0.472663,0.475105,0.479255,0.485603,0.490242,0.494148,0.497322,0.499519,0.502449,0.50367,0.504891,0.504646,0.50367,0.502205,0.499275,0.494636,0.488533,0.484627,0.479744,0.472663,0.469245,0.466316,0.464363,0.456794,0.451911,0.447517,0.444587,0.441413,0.439216,0.436286,0.436286,0.435798,0.436286,0.437751,0.439948,0.443366,0.448005,0.453132,0.456306,0.463142,0.468269,0.472663,0.475349,0.480964,0.48658,0.49073,0.492927,0.49781,0.499275,0.503182,0.504158,0.504891,0.504158,0.502205,0.501717,0.498054,0.494392,0.489754,0.484871,0.479988,0.473884,0.469245,0.466316,0.463142,0.456062,0.451423,0.448737,0.445075,0.441169,0.438239,0.435798,0.435798,0.436042,0.436286,0.437751,0.440192,0.443366,0.448493,0.453376,0.457771,0.464607,0.469001,0.472663,0.475349,0.48072,0.487312,0.489754,0.492927,0.495857,0.498787,0.503914,0.504158,0.504158,0.504158,0.502693,0.501472,0.49781,0.494392,0.489021,0.484382,0.479255,0.473884,0.46949,0.465339,0.463142,0.455329,0.451423,0.447761,0.444343,0.441413,0.438483,0.435798,0.435065,0.435554,0.436042,0.437263,0.43946,0.442878,0.448493,0.452888,0.457771,0.464607,0.47071,0.473396,0.475349,0.48072,0.486824,0.490242,0.49366,0.497566,0.499275,0.502693,0.504158,0.505135,0.504891,0.502449,0.50074,0.498054,0.493904,0.489021,0.484871,0.479988,0.473396,0.469245,0.465827,0.462898,0.455573,0.45069,0.447761,0.444587,0.441169,0.438239,0.436042,0.434333,0.434821,0.436286,0.438239,0.440681,0.44361,0.448737,0.453132,0.457282,0.463874,0.46949,0.472908,0.475349,0.481453,0.488045,0.491707,0.493904,0.498543,0.500008,0.503426,0.504158,0.505135,0.503914,0.502937,0.500984,0.498543,0.493904,0.488533,0.484627,0.478035,0.471443,0.468269,0.465095,0.464118,0.455329,0.451179,0.448249,0.444099,0.440925,0.438483,0.43653,0.436286,0.435798,0.436774,0.438727,0.440925,0.443366,0.448737,0.45362,0.457527,0.464851,0.469978,0.472908,0.475349,0.48072,0.48658,0.490974,0.493416,0.497566,0.499763,0.50367,0.503914,0.504891,0.505135,0.502937,0.501472,0.498543,0.494148,0.489021,0.484871,0.479744,0.472175,0.468513,0.465583,0.461677,0.455085,0.451667,0.447761,0.443854,0.441413,0.437995,0.43653,0.435554,0.435309,0.435554,0.437751,0.439948,0.442634,0.448981,0.45362,0.458259,0.464607,0.46949,0.472663,0.475349,0.481209,0.48658,0.49073,0.493416,0.497566,0.500252,0.50367,0.504402,0.505379,0.504646,0.503426,0.501961,0.499519,0.49366,0.488289,0.483162,0.478035,0.471687,0.468757,0.465583,0.462165,0.454841,0.451423,0.447028,0.44361,0.440925,0.437995,0.436286,0.435554,0.435798,0.436286,0.437507,0.43946,0.44361,0.449226,0.452888,0.457527,0.463874,0.46949,0.472908,0.476081,0.481453,0.487312,0.490486,0.49366,0.497566,0.500252,
0.502937,0.504646,0.505135,0.503914,0.502205,0.50074,0.498299,0.495613,0.490974,0.486824,0.482673,0.475837,0.47071,0.466804,0.464118,0.458991,0.453376,0.450446,0.446784,0.443122,0.440192,0.435554,0.436286,0.43653,0.436042,0.437263,0.439704,0.441657,0.445563,0.451179,0.455085,0.460456,0.46656,0.470466,0.47364,0.477302,0.483894,0.489021,0.492683,0.496834,0.499519,0.502449,0.504402,0.505135,0.504891,0.503426,0.502693,0.500252,0.496834,0.491218,0.486091,0.482185,0.475349,0.470954,0.467536,0.46363,0.458503,0.452888,0.449714,0.44654,0.443122,0.439948,0.436774,0.436042,0.434333,0.434577,0.436286,0.440436,0.441657,0.446296,0.451667,0.455085,0.460212,0.465827,0.470222,0.47364,0.477058,0.484871,0.489265,0.493172,0.49659,0.498543,0.501717,0.50367,0.505135,0.505867,0.504646,0.502449,0.499519,0.496101,0.49073,0.48658,0.481941,0.475837,0.470954,0.467536,0.464363,0.457282,0.452155,0.449226,0.445319,0.442145,0.43946,0.43653,0.435309,0.434821,0.435065,0.437263,0.438239,0.441657,0.445563,0.451423,0.455573,0.461433,0.467536,0.471199,0.476326,0.478523,0.485603,0.489021,0.492683,0.496345,0.498543,0.50367,0.504646,0.506355,0.506111,0.504646,0.503426,0.499519,0.496101,0.490242,0.485603,0.48072,0.473152,0.468757,0.466316,0.46363,0.456062,0.452155,0.449226,0.446784,0.442634,0.439704,0.436774,0.435554,0.436042,0.436286,0.437018,0.438239,0.441169,0.445563,0.451179,0.457038,0.462898,0.469245,0.472908,0.476326,0.479988,0.487556,0.489021,0.491218,0.495369,0.498787,0.501961,0.502449,0.504402,0.504891,0.50367,0.502937,0.499763,0.495369,0.489998,0.485359,0.480476,0.473884,0.470222,0.466804,0.464607,0.457527,0.452888,0.448005,0.445319,0.442145,0.439704,0.437018,0.434577,0.434333,0.434577,0.436286,0.438239,0.441169,0.447028,0.452399,0.455818,0.461921,0.468757,0.471443,0.474617,0.478523,0.486336,0.490974,0.494881,0.498054,0.500252,0.50367,0.505135,0.505623,0.506111,0.504646,0.503426,0.50074,0.496101,0.490486,0.486336,0.481697,0.474617,0.469001,0.464607,0.461677,0.455085,0.450446,0.447272,0.444587,0.441901,0.437263,0.435309,0.435065,0.435309,0.435554,0.437751,0.43946,0.443366,0.447517,0.452644,0.456794,0.463386,0.468269,0.471687,0.473152,0.47779,0.484138,0.489021,0.492439,0.497078,0.498543,0.502205,0.504402,0.505135,0.504891,0.504646,0.503426,0.500252,0.49659,0.49073,0.487068,0.481941,0.475837,0.471443,0.468757,0.465583,0.457527,0.451423,0.448249,0.444587,0.441657,0.43946,0.437507,0.436286,0.435798,0.435309,0.435554,0.437995,0.440192,0.444099,0.450446,0.454841,0.461189,0.467781,0.470954,0.474128,0.479744,0.486336,0.489509,0.492683,0.495613,0.499031,0.504402,0.506111,0.506844,0.505623,0.504402,0.502693,0.501228,0.497566,0.492927,0.488289,0.482185,0.474617,0.469245,0.465827,0.462654,0.454353,0.44947,0.446296,0.44361,0.440925,0.434333,0.432624,0.43238,0.433845,0.435798,0.437995,0.440436,0.443854,0.447272,0.450935,0.454108,0.461189,0.466316,0.47071,0.47364,0.4795,0.486336,0.491707,0.495125,0.499031,0.500496,0.504402,0.504158,0.505623,0.504891,0.503426,0.500984,0.498299,0.494636,0.488533,0.483894,0.4795,0.47364,0.469734,0.466316,0.464363,0.457038,0.452644,0.450446,0.447272,0.444343,0.440681,0.438483,0.437263,0.437507,0.437751,0.43946,0.439216,0.440681,0.445563,0.451179,0.455329,0.461921,0.467048,0.471199,0.474617,0.479988,0.48658,0.489509,0.493904,0.497322,0.499275,0.504891,0.505135,0.505623,0.5066,0.503914,0.502449,0.498543,0.496345,0.489998,0.485847,0.480964,0.474128,0.469978,0.466804,0.464363,0.457282,0.453376,0.449714,0.445808,0.441657,0.437018,0.433356,0.432624,0.434089,0.432868,0.435554,0.438483,0.441657,0.44654,0.451179,0.455818,0.464851,0.469001,0.473152,0.475837,0.481697,0.487556,0.491218,0.493904,0.498054,0.500252,0.503426,0.504646,0.505623,0.505379,0.505135,0.502693,0.498543,0.493904,0.488533,0.484627,0.4795,0.472663,0.468025,0.464607,0.462898,0.455085,0.450446,0.445808,0.443366,0.440681,0.437263,0.435798,0.435065,0.435798,0.437018,0.439704,0.444587,0.448249,0.453132,0.456062,0.45948,0.464363,0.468269,0.471443,0.47364,0.478279,0.482429,0.485603,0.489265,0.494881,0.498787,0.503182,0.505623,0.504402,0.503914,0.501472,0.499275,0.49659,0.492927,0.4878,0.482918,0.478035,0.472419,0.469978,0.467292,0.464607,0.458503,0.453132,0.448737,0.446296,0.44239,0.43946,0.438239,0.436774,0.436774,0.435798,0.43653,0.43946,0.444099,0.448005,0.451423,0.454597,0.461921,0.469245,0.472908,0.476081,0.482429,0.4878,0.491951,0.495125,0.498543,0.500008,0.502693,0.501717,0.503182,0.503426,0.50367,0.500984,0.498054,0.493416,0.489754,0.485847,0.479988,0.47364,0.46949,0.467292,0.464851,0.456306,0.451667,0.447272,0.440681,0.435798,0.432136,0.429938,0.430915,0.432624,0.434821,0.437995,0.441169,0.445808,0.452399,0.457282,0.462165,0.467536,0.472419,0.473884,0.476081,0.483162,0.489998,0.494148,0.496345,0.498543,0.498787,0.502205,0.502937,0.504646,0.504646,0.505135,0.502937,0.499763,0.493904,0.488777,0.484627,0.479744,0.473884,0.469001,0.465095,0.4607,0.453376,0.449226,0.447761,0.444831,0.442634,0.438239,0.435798,0.434577,0.434089,0.435798,0.439216,0.440192,0.442634,0.447761,0.451911,0.457282,0.462898,0.467781,0.47071,0.473396,0.480476,0.486824,0.489754,0.492439,0.495857,0.499763,0.504646,0.507088,0.508309,0.508064,0.507332,0.504891,0.501961,0.496101,0.491218,0.488289,0.481453,0.474617,0.471199,0.467048,0.460945,0.448493,0.44239,0.439216,0.437018,0.437263,0.436286,0.436042,0.437507,0.437018,0.437995,0.437995,0.439704,0.443366,0.448249,0.452644,0.457527,0.46363,0.469734,0.47364,0.476814,0.48365,0.489021,0.493172,0.496101,0.501228,0.503182,0.506355,0.5066,0.505623,0.504402,0.502937,0.500252,0.496345,0.491951,0.488289,0.484627,0.479011,0.473884,0.47071,0.467536,0.462654,0.454353,0.450446,0.445808,0.441169,0.439704,0.437507,0.436286,0.435065,0.434333,0.433112,0.434577,0.436286,0.441169,0.448249,0.452644,0.458259,0.465095,0.470954,0.473884,0.475349,0.482918,0.488289,0.493172,0.498054,0.502205,0.50367,0.505379,0.506844,0.5066,0.505867,0.504402,0.501961,0.498787,0.492927,0.487556,0.482185,0.475349,0.470222,0.467536,0.463142,0.458503,0.451911,0.448981,0.445319,0.441169,0.43946,0.435798,0.435065,0.434577,0.435798,0.437507,0.43946,0.442145,0.445808,0.451179,0.455085,0.461677,0.468025,0.469978,0.47071,0.474128,0.481453,0.48658,0.491463,0.493416,0.497322,0.500984,0.505135,0.505379,0.505623,0.502937,0.500252,0.499031,0.496345,0.493416,0.489509,0.486091,0.481941,0.476326,0.474861,0.469734,0.464118,0.455085,0.450446,0.448249,0.443854,0.440436,0.435309,0.433112,0.431403,0.430915,0.429206,0.429938,0.433112,0.438483,0.447272,0.45362,0.459968,0.467292,0.472419,0.474861,0.478035,0.484627,0.490242,0.493416,0.497566,0.501472,0.503914,0.505623,0.505623,0.505379,0.504158,0.503426,0.501717,0.498787,0.493416,0.488777,0.484382,0.4795,0.473396,0.47071,0.468269,0.461433,0.452399,0.448981,0.445808,0.441413,0.437263,0.433112,0.433845,0.434821,0.435798,0.437507,0.438727,0.441169,0.446296,0.452644,0.455329,0.459236,0.464118,0.467536,0.470466,0.473152,0.480232,0.486091,0.491463,0.49659,0.50074,0.504402,0.506355,0.5066,0.504158,0.501961,0.501228,0.499519,0.498054,0.494392,0.490974,0.486336,0.478523,0.472663,0.468513,0.463386,0.458259,0.451911,0.448981,0.445563,0.441901,0.439216,0.435065,0.435065,0.436286,0.439216,0.439948,0.440436,0.442145,0.445563,0.450935,0.454108,0.459724,0.465339,0.469001,0.471931,0.475349,0.481941,0.485115,0.486824,0.490242,0.495125,0.499763,0.502693,0.503914,0.503914,0.502693,0.503182,0.501717,0.498787,0.493904,0.489509,0.484627,0.478035,0.472419,0.469978,0.46656,0.461921,0.455085,0.451667,0.448981,0.445808,0.444343,0.439948,0.437263,0.435309,0.434333,0.435798,0.438483,0.441169,0.446052,0.45069,0.454353,0.45948,0.46656,0.469001,0.471199,0.47364,0.480476,0.485603,0.490486,0.494392,0.49781,0.501472,0.504646,0.506111,0.5066,0.505867,0.503914,0.501961,0.498299,0.491463,0.488045,0.48365,0.476814,0.472419,0.468757,0.465095,0.459236,0.453376,0.448981,0.445075,0.441901,0.441413,0.438483,0.437995,0.436042,0.43653,0.43653,0.436774,0.43946,0.444587,0.449958,0.454353,0.459968,0.466316,0.46949,0.471931,0.477546,0.485603,0.491218,0.494392,0.497078,0.499275,0.501472,0.502693,0.502693,0.502693,0.503426,0.500252,0.498787,0.496345,0.489998,0.486824,0.481209,0.475837,0.472175,0.471687,0.466804,0.4607,0.45362,0.449714,0.445319,0.43946,0.437507,0.435065,0.436042,0.436286,0.435554,0.437263,0.437995,0.439704,0.444831,0.450446,0.455573,0.462165,0.469245,0.473396,0.476326,0.4795,0.485603,0.489509,0.492683,0.495369,0.498299,0.503426,0.50367,0.503426,0.502449,0.500984,0.498543,0.498543,0.496345,0.490974,0.488045,0.484138,0.478035,0.471199,0.467781,0.464363,0.458747,0.453132,0.45069,0.447517,0.444831,0.443122,0.437995,0.437018,0.436042,0.435065,0.435798,0.438483,0.438972,0.444343,0.448493,0.45362,0.45948,0.467292,0.469978,0.472908,0.475837,0.484138,0.488777,0.492439,0.497078,0.501228,0.50367,0.505379,0.506111,0.505867,0.504158,0.501228,0.498543,0.496345,0.49073,0.487556,0.484138,0.478035,0.472419,0.468269,0.465095,0.45948,0.453864,0.44947,0.446052,0.442145,0.43946,0.435554,0.435554,0.434821,0.436286,0.439216,0.439704,0.441413,0.445563,0.450446,0.453864,0.45948,0.466316,0.471931,0.478035,0.48072,0.487556,0.490242,0.492927,0.495369,0.49781,
0.500984,0.502693,0.505135,0.504402,0.503182,0.50074,0.49781,0.492683,0.488533,0.485359,0.480964,0.475593,0.471931,0.468513,0.464607,0.457038,0.452155,0.448981,0.445075,0.44239,0.437751,0.43653,0.434577,0.434333,0.435065,0.436286,0.43946,0.443366,0.449226,0.453376,0.457038,0.462409,0.468025,0.472419,0.475105,0.482185,0.487312,0.489998,0.494392,0.498299,0.501228,0.504646,0.505867,0.505623,0.505623,0.504646,0.502937,0.499275,0.494881,0.489509,0.485847,0.478523,0.472419,0.468025,0.465827,0.462165,0.452399,0.447517,0.443366,0.441169,0.439704,0.43653,0.435798,0.434577,0.434089,0.435798,0.437751,0.440681,0.443854,0.44947,0.454353,0.458503,0.464118,0.469978,0.471931,0.474617,0.481697,0.487068,0.490974,0.494392,0.500008,0.502449,0.505867,0.505623,0.504646,0.504402,0.502693,0.502205,0.499275,0.494636,0.488045,0.484382,0.4795,0.472908,0.468757,0.464851,0.4607,0.453376,0.450446,0.448737,0.446784,0.445563,0.440192,0.436774,0.435065,0.433845,0.434577,0.437263,0.438239,0.438972,0.442878,0.446784,0.452644,0.461921,0.468269,0.473396,0.476326,0.484382,0.489021,0.494148,0.49781,0.502205,0.504646,0.506111,0.506355,0.504891,0.504158,0.503426,0.501961,0.500252,0.493904,0.488777,0.484627,0.478523,0.471199,0.468269,0.465095,0.461189,0.454108,0.452155,0.449714,0.445808,0.440192,0.433356,0.432136,0.431891,0.431647,0.433112,0.436042,0.441169,0.446296,0.451667,0.456306,0.4607,0.466072,0.470466,0.473152,0.47779,0.485603,0.490242,0.491463,0.491463,0.49366,0.496101,0.499763,0.502205,0.502205,0.502449,0.501472,0.500252,0.497566,0.494881,0.490486,0.485603,0.479255,0.472419,0.46949,0.467536,0.464118,0.456794,0.451667,0.448737,0.445319,0.44361,0.438727,0.436286,0.434821,0.434821,0.434333,0.43653,0.438727,0.44361,0.449714,0.454841,0.458991,0.465583,0.470222,0.473396,0.475837,0.48365,0.488533,0.491951,0.494881,0.498787,0.502693,0.505135,0.50367,0.50367,0.502693,0.501961,0.499031,0.496345,0.491951,0.4878,0.484382,0.478523,0.472908,0.469001,0.466804,0.462654,0.454353,0.450202,0.447272,0.443122,0.441413,0.438727,0.437507,0.434821,0.434577,0.435798,0.437995,0.439948,0.443854,0.449714,0.453376,0.458259,0.464607,0.469978,0.474128,0.477302,0.484627,0.489509,0.491707,0.494148,0.496345,0.498543,0.501961,0.503182,0.501961,0.500984,0.500008,0.498054,0.495125,0.491951,0.486824,0.484138,0.479011,0.472908,0.469978,0.46656,0.462165,0.454108,0.45069,0.447028,0.442878,0.440681,0.437018,0.436042,0.435554,0.436286,0.437751,0.438727,0.441901,0.445075,0.45069,0.454841,0.460456,0.46656,0.472663,0.475837,0.479744,0.485603,0.489021,0.492195,0.494881,0.497322,0.498787,0.500008,0.499519,0.499031,0.499031,0.498543,0.498787,0.49781,0.493416,0.490242,0.486091,0.480476,0.475349,0.471443,0.467536,0.461921,0.454353,0.450202,0.446784,0.44361,0.440192,0.435798,0.43653,0.434577,0.4336,0.435554,0.437507,0.440192,0.444343,0.450202,0.453376,0.460212,0.466316,0.471199,0.474617,0.47779,0.485847,0.489998,0.493172,0.498054,0.499763,0.503182,0.505623,0.505379,0.504402,0.502693,0.500984,0.498787,0.49659,0.491707,0.488045,0.48365,0.477302,0.471687,0.469978,0.467048,0.460456,0.455085,0.448493,0.445319,0.440925,0.43946,0.435309,0.435309,0.435309,0.435554,0.435309,0.43653,0.439216,0.443366,0.451179,0.454353,0.460212,0.467292,0.471931,0.474617,0.475837,0.48365,0.488533,0.491218,0.494392,0.498787,0.502205,0.504402,0.504646,0.505623,0.505135,0.502449,0.498054,0.495369,0.491951,0.489021,0.484871,0.476814,0.468757,0.465095,0.4607,0.455329,0.451179,0.448981,0.446296,0.44361,0.44239,0.438727,0.437995,0.436286,0.436042,0.437263,0.439704,0.442145,0.446784,0.451911,0.456306,0.460456,0.468025,0.472175,0.474617,0.478035,0.485603,0.489998,0.493172,0.495613,0.498543,0.501717,0.503182,0.50367,0.50367,0.502449,0.501717,0.499031,0.49659,0.491951,0.488289,0.483406,0.47779,0.472175,0.469001,0.465583,0.459236,0.453864,0.45069,0.446784,0.44361,0.441901,0.438727,0.437018,0.435798,0.436042,0.435554,0.437263,0.439948,0.443366,0.44947,0.453376,0.458747,0.465339,0.469734,0.472908,0.475105,0.482673,0.487312,0.491951,0.495857,0.499763,0.504158,0.505867,0.507332,0.506844,0.5066,0.503426,0.499763,0.495857,0.489754,0.486336,0.482185,0.475105,0.469978,0.467048,0.465095,0.458503,0.453864,0.450446,0.448493,0.445563,0.442634,0.437995,0.436774,0.43653,0.436774,0.438483,0.439216,0.441901,0.444587,0.447761,0.449714,0.456306,0.463142,0.469734,0.474128,0.477546,0.48658,0.489265,0.491707,0.494881,0.498299,0.501961,0.50367,0.505135,0.505623,0.503426,0.502205,0.50074,0.497078,0.491707,0.486336,0.482185,0.475105,0.471199,0.468269,0.465827,0.460212,0.454353,0.450446,0.447272,0.442878,0.439216,0.43653,0.435798,0.435309,0.434333,0.435798,0.437995,0.441413,0.44654,0.451667,0.455818,0.462654,0.468513,0.471687,0.475105,0.478279,0.484627,0.487556,0.490974,0.494636,0.497322,0.50074,0.502449,0.503426,0.503182,0.503182,0.502205,0.499519,0.495857,0.489998,0.485603,0.480964,0.474617,0.471199,0.468269,0.465583,0.459236,0.453132,0.449958,0.446052,0.44239,0.439704,0.437995,0.43653,0.436286,0.436774,0.439216,0.438727,0.441901,0.44654,0.451667,0.455818,0.462654,0.467781,0.470466,0.474128,0.478523,0.485359,0.489754,0.492439,0.496345,0.499031,0.502205,0.503182,0.504402,0.504158,0.501717,0.500252,0.49781,0.494881,0.489509,0.486091,0.482673,0.47657,0.472663,0.46949,0.466316,0.459724,0.453864,0.449714,0.446296,0.441901,0.438483,0.436286,0.433845,0.432868,0.433356,0.435065,0.438239,0.44239,0.448737,0.452888,0.457038,0.46363,0.469978,0.47364,0.476326,0.479744,0.486336,0.488533,0.49073,0.494148,0.497322,0.501228,0.502693,0.504158,0.504158,0.504402,0.502205,0.500008,0.497078,0.492439,0.487556,0.482918,0.47657,0.470954,0.467292,0.463142,0.456306,0.450446,0.446784,0.443366,0.440681,0.438727,0.436774,0.436286,0.43653,0.436774,0.438727,0.438239,0.442634,0.446784,0.450935,0.455085,0.461921,0.467781,0.471687,0.476326,0.48072,0.488777,0.49073,0.491218,0.492439,0.493904,0.499275,0.501961,0.503914,0.505135,0.503182,0.501717,0.500496,0.496345,0.491463,0.488045,0.481941,0.476814,0.471931,0.469001,0.466072,0.457771,0.453132,0.448981,0.445075,0.441657,0.438483,0.436042,0.436042,0.434577,0.434089,0.435309,0.437263,0.440436,0.445808,0.449714,0.454597,0.4607,0.468757,0.472908,0.476326,0.48072,0.4878,0.490974,0.493904,0.497322,0.499031,0.502937,0.503914,0.505623,0.504402,0.504402,0.501717,0.497566,0.494636,0.489998,0.487556,0.48365,0.475349,0.46949,0.465339,0.463386,0.455085,0.45069,0.447517,0.443122,0.43946,0.437263,0.434821,0.435798,0.436774,0.436286,0.437995,0.439704,0.44361,0.448493,0.452888,0.457527,0.464607,0.470222,0.473884,0.47657,0.4795,0.485359,0.488045,0.491707,0.49781,0.499519,0.501961,0.503426,0.504402,0.504646,0.50367,0.502937,0.500496,0.495369,0.489509,0.48658,0.480964,0.474861,0.469978,0.46656,0.46363,0.455573,0.451667,0.447517,0.443122,0.440436,0.437751,0.435065,0.435309,0.434821,0.436774,0.438483,0.440192,0.443122,0.448249,0.452888,0.457282,0.464118,0.469001,0.471931,0.474128,0.479988,0.486336,0.490242,0.494148,0.497566,0.499031,0.503426,0.504646,0.505867,0.505379,0.501961,0.501717,0.499275,0.496101,0.490486,0.48658,0.481453,0.475593,0.469245,0.465339,0.462165,0.454108,0.449714,0.447517,0.444099,0.439948,0.43653,0.434089,0.433356,0.433845,0.434577,0.436774,0.439216,0.444587,0.449714,0.453376,0.458747,0.464851,0.468269,0.471687,0.474372,0.480476,0.487068,0.491707,0.494636,0.498543,0.500252,0.50367,0.505379,0.505379,0.503182,0.500496,0.498299,0.496834,0.492439,0.487556,0.485115,0.4795,0.474617,0.471199,0.468025,0.464851,0.457038,0.452644,0.449714,0.44654,0.441901,0.438972,0.437018,0.435798,0.434577,0.434577,0.437018,0.43946,0.442878,0.449226,0.454108,0.458991,0.465339,0.471199,0.474617,0.475593,0.481209,0.487556,0.490486,0.491951,0.494392,0.496345,0.499763,0.501717,0.502693,0.503426,0.503426,0.501717,0.499519,0.496345,0.491218,0.486336,0.48072,0.474372,0.469978,0.467781,0.46363,0.455329,0.451667,0.448493,0.444587,0.44239,0.439216,0.437507,0.43653,0.435554,0.435798,0.437263,0.43946,0.442878,0.449714,0.453864,0.458503,0.463874,0.470222,0.472175,0.473884,0.478767,0.483894,0.488289,0.492683,0.497322,0.499275,0.503914,0.504891,0.504646,0.504646,0.502693,0.500252,0.497566,0.493904,0.489509,0.484871,0.480964,0.474617,0.470954,0.466804,0.463386,0.456062,0.451423,0.447272,0.444099,0.440681,0.437995,0.435798,0.435554,0.435309,0.435554,0.436042,0.438483,0.443366,0.448737,0.452644,0.458503,0.465827,0.470466,0.472419,0.475105,0.48072,0.486336,0.490242,0.493904,0.497078,0.498299,0.501961,0.502937,0.503914,0.504158,0.503914,0.502693,0.499763,0.495125,0.490242,0.486336,0.480232,0.474128,0.469978,0.466316,0.461921,0.454353,0.450202,0.447272,0.44361,0.441413,0.437507,0.435554,0.435798,0.435065,0.435798,0.438483,0.440681,0.443366,0.448981,0.453376,0.458015,0.465339,0.470222,0.473396,0.476326,0.482673,0.488045,0.490486,0.493904,0.498054,0.499519,0.502937,0.502937,0.503182,0.503426,0.502449,0.502449,0.499275,0.495369,0.49073,0.487312,0.479988,0.474617,0.469245,0.465583,0.459968,0.451911,0.448493,0.446296,0.44239,0.441657,0.439704,0.435554,0.433845,0.433356,0.434333,0.437507,0.438972,0.443366,0.447517,0.450202,0.455818,0.463142,0.468269,0.471443,0.474617,0.481697,0.487312,0.491707,0.49659,0.50074,0.503182,
0.504158,0.505379,0.505623,0.503914,0.502937,0.50074,0.497322,0.491218,0.485603,0.481697,0.475837,0.471687,0.467781,0.464363,0.45655,0.451911,0.448249,0.445075,0.441657,0.438972,0.437018,0.43653,0.436042,0.436286,0.437507,0.439704,0.443122,0.447272,0.452644,0.456062,0.461433,0.466804,0.471199,0.474861,0.47779,0.484871,0.488533,0.491951,0.495125,0.498054,0.502205,0.505135,0.504646,0.505135,0.504402,0.503426,0.500252,0.496345,0.489509,0.485359,0.480476,0.474861,0.470954,0.467048,0.464118,0.45655,0.451911,0.449226,0.446052,0.442145,0.439948,0.437263,0.43653,0.435309,0.435554,0.43653,0.438727,0.441901,0.445808,0.451911,0.455573,0.461921,0.468025,0.47071,0.472663,0.478523,0.484871,0.488777,0.492195,0.496834,0.499031,0.502693,0.502937,0.504891,0.505379,0.504402,0.500984,0.499519,0.495369,0.489754,0.485359,0.48072,0.474372,0.469978,0.46656,0.464851,0.457771,0.454353,0.450202,0.446052,0.44239,0.439216,0.436286,0.435798,0.435554,0.435798,0.437995,0.43946,0.442634,0.446052,0.452399,0.45655,0.462409,0.468757,0.472908,0.474861,0.479988,0.48658,0.490242,0.493172,0.496101,0.497078,0.500496,0.502449,0.504402,0.504646,0.502937,0.500496,0.497078,0.494148,0.489509,0.484871,0.48072,0.474617,0.47071,0.468025,0.465095,0.457038,0.452888,0.448981,0.44654,0.442634,0.438972,0.436286,0.436774,0.436774,0.437751,0.438483,0.440192,0.44239,0.446784,0.451667,0.455085,0.461677,0.467292,0.472175,0.475105,0.480476,0.486091,0.489021,0.492683,0.496345,0.498299,0.502449,0.502937,0.504402,0.503914,0.503914,0.501472,0.499031,0.494636,0.489509,0.485603,0.480964,0.475349,0.469978,0.468025,0.464851,0.457038,0.453132,0.449958,0.446296,0.442634,0.439948,0.437263,0.436042,0.435065,0.435309,0.437018,0.439704,0.442145,0.446296,0.450935,0.454353,0.461921,0.467536,0.470466,0.474128,0.479011,0.485603,0.488777,0.492195,0.496101,0.498787,0.502205,0.504402,0.504646,0.504158,0.503426,0.502449,0.500496,0.49659,0.490486,0.485603,0.481209,0.474861,0.470466,0.467536,0.464363,0.456062,0.450446,0.448493,0.445563,0.441413,0.439704,0.437018,0.437263,0.435065,0.434333,0.435065,0.437507,0.442145,0.447272,0.451179,0.454597,0.460945,0.46656,0.470466,0.474372,0.480476,0.486336,0.49073,0.493904,0.497322,0.499275,0.504158,0.505135,0.505135,0.504402,0.503914,0.502449,0.498787,0.494392,0.489265,0.486336,0.480964,0.474861,0.470466,0.46656,0.463874,0.456062,0.451667,0.448737,0.445075,0.442145,0.438727,0.437018,0.43653,0.435798,0.436286,0.437507,0.438727,0.442145,0.447761,0.452399,0.457038,0.463874,0.468757,0.471687,0.474372,0.480476,0.487068,0.49073,0.493904,0.49781,0.500252,0.503426,0.504646,0.504646,0.503914,0.501961,0.50074,0.498054,0.494148,0.489509,0.485603,0.480232,0.474372,0.46949,0.467048,0.463874,0.455329,0.451667,0.448493,0.445075,0.442878,0.437995,0.437018,0.435798,0.435309,0.436286,0.438239,0.439948,0.442634,0.447761,0.451911,0.457038,0.462898,0.468513,0.471931,0.474617,0.480476,0.48658,0.489754,0.493416,0.496345,0.498299,0.502449,0.503426,0.504158,0.503914,0.503182,0.502205,0.499031,0.495369,0.490242,0.483406,0.480232,0.475105,0.46949,0.465583,0.460945,0.452888,0.448981,0.446784,0.443122,0.442145,0.438483,0.43653,0.435065,0.435554,0.435798,0.438483,0.438972,0.443366,0.448737,0.453132,0.457527,0.464118,0.469978,0.473152,0.474861,0.481453,0.48658,0.490242,0.494148,0.496834,0.500984,0.504158,0.505135,0.505135,0.504646,0.504158,0.501472,0.499031,0.494392,0.489265,0.486091,0.48072,0.474372,0.469978,0.467292,0.462898,0.454841,0.452399,0.449714,0.445075,0.441657,0.438483,0.436042,0.434821,0.434089,0.433845,0.436286,0.437018,0.439948,0.446296,0.45069,0.456062,0.46363,0.469734,0.473152,0.475837,0.482673,0.488289,0.491218,0.494636,0.49781,0.500984,0.504891,0.506111,0.506355,0.506111,0.505135,0.501717,0.498543,0.492439,0.48658,0.481941,0.47657,0.47071,0.467048,0.465095,0.461433,0.454353,0.451667,0.448981,0.444831,0.441901,0.438239,0.437263,0.435065,0.434333,0.434821,0.437507,0.440436,0.44361,0.449226,0.45362,0.458503,0.465095,0.470466,0.47364,0.475593,0.481453,0.48658,0.490974,0.494148,0.49781,0.50074,0.504646,0.505867,0.506111,0.505867,0.504646,0.502449,0.498787,0.493416,0.487556,0.484138,0.478767,0.472663,0.46949,0.465583,0.461189,0.453376,0.449226,0.446296,0.44239,0.441413,0.437263,0.437263,0.435065,0.434577,0.435554,0.437507,0.43946,0.443366,0.449226,0.452888,0.457527,0.465095,0.469978,0.473152,0.475837,0.482429,0.488289,0.491951,0.494392,0.498054,0.500252,0.503182,0.503914,0.504646,0.505135,0.50367,0.502449,0.499031,0.493904,0.489265,0.484871,0.478523,0.471931,0.468513,0.465339,0.460212,0.453864,0.448981,0.445808,0.44239,0.440925,0.437507,0.436774,0.435554,0.436042,0.436286,0.438727,0.441169,0.446052,0.449714,0.454108,0.458015,0.461677,0.469001,0.472908,0.475593,0.482918,0.488289,0.492195,0.494392,0.496834,0.499275,0.502449,0.502937,0.50367,0.503914,0.502205,0.500496,0.498299,0.494392,0.488777,0.484382,0.478035,0.472419,0.468757,0.465827,0.460945,0.454597,0.451179,0.447517,0.44361,0.441413,0.438239,0.436042,0.435065,0.434821,0.43653,0.437751,0.440681,0.444587,0.448493,0.453376,0.457527,0.464118,0.468513,0.471931,0.474861,0.483406,0.4878,0.490974,0.495369,0.499031,0.501472,0.503914,0.504402,0.504158,0.504402,0.50367,0.501228,0.497566,0.493172,0.489021,0.483894,0.478523,0.473152,0.46949,0.465827,0.461189,0.454353,0.450202,0.447272,0.44361,0.441901,0.437995,0.436286,0.434333,0.434333,0.434089,0.43653,0.440436,0.444831,0.450935,0.454108,0.459236,0.465827,0.470466,0.475349,0.478523,0.484627,0.489265,0.491463,0.494148,0.497566,0.500984,0.501961,0.502693,0.502693,0.501961,0.500252,0.498543,0.496834,0.492927,0.488289,0.483406,0.47779,0.472663,0.468757,0.465095,0.4607,0.45362,0.45069,0.447517,0.443366,0.441657,0.437751,0.437507,0.436042,0.436286,0.437751,0.438483,0.441169,0.445075,0.450202,0.454108,0.460212,0.465827,0.470466,0.472175,0.475593,0.482918,0.488045,0.491707,0.495125,0.49781,0.500252,0.502693,0.50367,0.504891,0.502449,0.501961,0.499519,0.497078,0.492683,0.488045,0.483894,0.47779,0.471687,0.468513,0.465827,0.460212,0.453864,0.44947,0.447272,0.44361,0.44239,0.437751,0.435798,0.435065,0.434821,0.435309,0.438239,0.441657,0.446296,0.451423,0.454353,0.459724,0.466804,0.469978,0.473396,0.476081,0.483894,0.487068,0.489509,0.49366,0.49781,0.501472,0.50367,0.505135,0.505623,0.504402,0.503182,0.500496,0.49781,0.492927,0.4878,0.483406,0.477302,0.471931,0.469001,0.464607,0.458259,0.451179,0.447272,0.444587,0.441169,0.439948,0.43653,0.436774,0.435798,0.436286,0.438239,0.439704,0.441901,0.446052,0.449958,0.453864,0.458503,0.465095,0.469001,0.472908,0.475837,0.48365,0.488289,0.492439,0.495613,0.500496,0.500984,0.504891,0.505623,0.504402,0.504402,0.50367,0.500496,0.49659,0.491463,0.487556,0.482918,0.475593,0.471199,0.468025,0.465583,0.458991,0.453376,0.449714,0.447028,0.44361,0.442634,0.438239,0.43653,0.435309,0.435554,0.437018,0.438727,0.441413,0.445075,0.450202,0.454597,0.460212,0.468025,0.471443,0.474861,0.477546,0.486336,0.489021,0.492439,0.496101,0.497566,0.500008,0.501961,0.502205,0.501717,0.500984,0.500496,0.498543,0.495857,0.492195,0.4878,0.48365,0.477058,0.471931,0.467536,0.465339,0.45948,0.453376,0.449958,0.447028,0.443366,0.440681,0.437507,0.436286,0.436286,0.436042,0.436774,0.438972,0.441413,0.445075,0.451179,0.455085,0.460945,0.467048,0.47071,0.474617,0.477546,0.484382,0.4878,0.491463,0.495369,0.497078,0.500496,0.502449,0.502693,0.502937,0.502693,0.500984,0.499763,0.497322,0.491707,0.488289,0.482918,0.476081,0.471443,0.467781,0.464607,0.458991,0.452155,0.449226,0.445808,0.442145,0.439704,0.437018,0.436286,0.43653,0.436286,0.437751,0.43946,0.441901,0.44654,0.451179,0.455573,0.462409,0.466804,0.471199,0.473884,0.477058,0.484627,0.4878,0.491463,0.495369,0.498787,0.502205,0.502693,0.502693,0.502937,0.502693,0.501228,0.500252,0.496834,0.491463,0.488045,0.482673,0.476814,0.471687,0.468513,0.464851,0.458015,0.453132,0.44947,0.447272,0.443366,0.440925,0.438972,0.437507,0.436042,0.435554,0.437018,0.439216,0.442634,0.447517,0.451911,0.455573,0.4607,0.466804,0.470954,0.47364,0.478523,0.486336,0.489265,0.492195,0.495369,0.497322,0.500496,0.501961,0.503182,0.502205,0.502937,0.501961,0.500008,0.496834,0.491707,0.487068,0.482185,0.474861,0.47071,0.467048,0.465339,0.458747,0.453132,0.449226,0.446784,0.441901,0.439704,0.437507,0.436774,0.436286,0.435309,0.435798,0.438727,0.441657,0.446052,0.451667,0.455573,0.45948,0.465827,0.469734,0.473884,0.4795,0.48658,0.490486,0.493416,0.496834,0.499275,0.502693,0.50367,0.504402,0.505135,0.504158,0.502205,0.498299,0.495369,0.489509,0.485603,0.481453,0.473884,0.470466,0.467536,0.464851,0.458259,0.452644,0.44947,0.445319,0.442634,0.43946,0.435798,0.434577,0.434577,0.435065,0.436774,0.439216,0.441901,0.446784,0.451667,0.454353,0.462165,0.468025,0.471687,0.473884,0.47779,0.484382,0.489265,0.493416,0.49659,0.499519,0.503182,0.504402,0.504646,0.504646,0.504891,0.50367,0.500252,0.496101,0.489021,0.484138,0.478767,0.472663,0.469245,0.466804,0.464607,0.458015,0.453376,0.449958,0.44654,0.443122,0.440681,0.437751,0.437263,0.437018,0.435554,0.435309,0.437018,0.441169,0.445808,0.45069,0.455573,0.461433,0.468025,0.471199,0.474617,0.480232,0.486091,0.490486,0.493416,0.496834,0.499031,0.502205,
0.503914,0.504891,0.505379,0.503914,0.50074,0.49781,0.495857,0.492927,0.487556,0.482673,0.47779,0.473396,0.470954,0.467292,0.462898,0.455818,0.451423,0.447272,0.44361,0.44239,0.438972,0.436774,0.433845,0.432868,0.433845,0.436286,0.438727,0.44239,0.448249,0.452888,0.458259,0.465827,0.469978,0.473884,0.47657,0.484138,0.488777,0.491218,0.495369,0.498054,0.502449,0.504402,0.505379,0.505379,0.504646,0.503914,0.501472,0.499275,0.494392,0.488777,0.485115,0.478523,0.472175,0.46949,0.465095,0.460945,0.45362,0.449226,0.446784,0.442634,0.439216,0.434333,0.434089,0.433845,0.434089,0.435309,0.437751,0.440925,0.444587,0.450202,0.454841,0.460212,0.466072,0.47071,0.473152,0.475593,0.48365,0.4878,0.491218,0.495125,0.498054,0.50074,0.503182,0.504158,0.504891,0.504402,0.503426,0.501961,0.498787,0.494636,0.488045,0.485115,0.478035,0.472908,0.46949,0.466316,0.460945,0.454108,0.451179,0.448249,0.444343,0.441901,0.436774,0.435309,0.434577,0.434821,0.437018,0.43946,0.441413,0.444587,0.448981,0.452155,0.457282,0.46363,0.468269,0.472419,0.476081,0.483894,0.487312,0.491218,0.494636,0.499031,0.502205,0.505135,0.505379,0.504891,0.505135,0.502937,0.500984,0.49659,0.491951,0.487068,0.484382,0.4795,0.47364,0.469001,0.466316,0.460945,0.453132,0.449714,0.446784,0.443366,0.439704,0.434333,0.433356,0.431403,0.431647,0.433845,0.437018,0.440681,0.445563,0.451179,0.455085,0.461189,0.468025,0.472663,0.475593,0.478523,0.485115,0.489509,0.491951,0.496101,0.499031,0.500984,0.502693,0.503182,0.504158,0.503182,0.501717,0.500008,0.497078,0.490974,0.486336,0.481453,0.475837,0.470954,0.468513,0.465827,0.4607,0.455573,0.451911,0.448981,0.445319,0.44239,0.437995,0.437263,0.435798,0.43653,0.436774,0.438727,0.441169,0.445319,0.450446,0.453376,0.458991,0.465827,0.46949,0.472419,0.475349,0.483406,0.48658,0.492195,0.495369,0.497566,0.500984,0.502693,0.504158,0.504891,0.504891,0.50367,0.501228,0.49781,0.492439,0.487556,0.482918,0.476814,0.471931,0.468025,0.465095,0.459724,0.453864,0.45069,0.447272,0.443122,0.441657,0.438727,0.437507,0.437263,0.435554,0.435309,0.437751,0.439948,0.444587,0.44947,0.45362,0.45948,0.466072,0.469978,0.473396,0.476814,0.484627,0.489021,0.49366,0.496834,0.499031,0.501472,0.502937,0.502449,0.502449,0.500984,0.499763,0.49781,0.495369,0.491218,0.488045,0.48365,0.47779,0.471687,0.468269,0.466072,0.45948,0.454841,0.450446,0.447028,0.44361,0.44239,0.437751,0.437507,0.436286,0.435798,0.437018,0.438972,0.442634,0.446296,0.449958,0.45362,0.45948,0.465827,0.469734,0.472663,0.475837,0.484382,0.4878,0.491463,0.495125,0.498543,0.502449,0.503914,0.505379,0.505135,0.503914,0.503182,0.500984,0.49781,0.491951,0.487312,0.483406,0.475837,0.470954,0.467781,0.465339,0.458991,0.453376,0.44947,0.445563,0.44239,0.439948,0.43653,0.43653,0.43653,0.436286,0.437751,0.439216,0.442145,0.447272,0.452399,0.454841,0.458747,0.463142,0.467781,0.471443,0.475837,0.48365,0.488289,0.492439,0.496345,0.498787,0.503426,0.505623,0.507332,0.507332,0.505623,0.503914,0.500984,0.496834,0.491707,0.487312,0.481453,0.474128,0.468513,0.463874,0.462165,0.455329,0.45069,0.448737,0.446052,0.443366,0.441657,0.437751,0.437018,0.436774,0.437263,0.437995,0.43946,0.441901,0.44654,0.451911,0.455573,0.461433,0.467536,0.471199,0.473884,0.477058,0.484138,0.489021,0.492439,0.495613,0.49781,0.501228,0.502449,0.502693,0.503914,0.503426,0.500984,0.499275,0.496834,0.491707,0.487556,0.482673,0.475349,0.470954,0.468025,0.466316,0.45948,0.454597,0.44947,0.447028,0.443122,0.440436,0.437995,0.43653,0.435798,0.436774,0.437263,0.438483,0.441657,0.447272,0.45069,0.455085,0.461189,0.46656,0.469978,0.473396,0.47779,0.486336,0.489754,0.492439,0.495125,0.498299,0.500984,0.502937,0.50367,0.50367,0.502205,0.501472,0.498543,0.494636,0.489754,0.486091,0.482429,0.476326,0.47071,0.467292,0.464607,0.454841,0.451179,0.447761,0.446052,0.442878,0.439948,0.437263,0.43653,0.436286,0.437018,0.438483,0.440192,0.44361,0.447272,0.452399,0.457282,0.46363,0.46949,0.472908,0.476081,0.4795,0.48658,0.488533,0.491951,0.495369,0.497566,0.498543,0.50074,0.502205,0.502449,0.502937,0.501472,0.499519,0.495857,0.490974,0.486824,0.480964,0.475349,0.47071,0.468269,0.466072,0.458015,0.453376,0.450202,0.447272,0.44361,0.439704,0.437507,0.436042,0.434333,0.434333,0.435309,0.437995,0.440925,0.445808,0.452155,0.457038,0.462409,0.468513,0.472663,0.475105,0.481697,0.486091,0.488777,0.492439,0.496345,0.498299,0.502205,0.50367,0.505135,0.504646,0.504158,0.501472,0.497322,0.492195,0.485847,0.481697,0.477058,0.472175,0.469978,0.467536,0.465095,0.458259,0.454597,0.450935,0.447272,0.444343,0.440681,0.437751,0.436286,0.435309,0.435065,0.435309,0.438239,0.441901,0.448249,0.452888,0.457771,0.464118,0.469734,0.471443,0.474617,0.47779,0.485359,0.489998,0.493172,0.496345,0.499519,0.502693,0.502937,0.502693,0.503182,0.502205,0.501472,0.499275,0.495613,0.489509,0.485359,0.4795,0.474128,0.47071,0.468025,0.464851,0.457771,0.454353,0.451179,0.447517,0.443366,0.439216,0.43653,0.435798,0.435554,0.436042,0.436774,0.43946,0.442878,0.447761,0.452155,0.455329,0.462165,0.468757,0.470954,0.47364,0.478523,0.485847,0.489265,0.491951,0.495613,0.498787,0.503914,0.505135,0.505135,0.505379,0.503914,0.50074,0.49781,0.494148,0.488533,0.484871,0.480232,0.474128,0.469001,0.466316,0.463386,0.456306,0.452888,0.449958,0.44654,0.444587,0.441413,0.439216,0.439216,0.437263,0.436286,0.438727,0.440192,0.443366,0.447272,0.451179,0.454597,0.461677,0.468025,0.470954,0.472908,0.47779,0.484871,0.488533,0.492439,0.495857,0.498787,0.502449,0.502449,0.502937,0.503426,0.503182,0.501961,0.498299,0.494148,0.487312,0.482429,0.477546,0.472663,0.469978,0.465339,0.462898,0.456062,0.452644,0.448981,0.447517,0.443366,0.440681,0.441413,0.437018,0.437018,0.437507,0.438483,0.438972,0.44239,0.447517,0.453132,0.457771,0.464363,0.469001,0.471931,0.475593,0.481697,0.488289,0.492195,0.495125,0.499519,0.502205,0.504646,0.504158,0.503914,0.503182,0.502449,0.501717,0.498787,0.495613,0.490974,0.484871,0.478767,0.472908,0.469245,0.466804,0.46363,0.456062,0.451423,0.448249,0.444099,0.439948,0.435798,0.433356,0.434089,0.436286,0.437018,0.440192,0.441413,0.445319,0.448737,0.450935,0.454841,0.461189,0.467048,0.471199,0.474861,0.480232,0.484627,0.488289,0.491463,0.494636,0.497078,0.500008,0.502205,0.504158,0.504891,0.504402,0.502205,0.499519,0.495369,0.490242,0.486091,0.480476,0.474617,0.470954,0.467048,0.465339,0.456306,0.452155,0.448249,0.444831,0.442878,0.440192,0.437751,0.43653,0.435309,0.434577,0.43653,0.438972,0.442878,0.449226,0.45362,0.458747,0.465583,0.469978,0.472663,0.474617,0.48072,0.486091,0.49073,0.493416,0.497566,0.500252,0.502937,0.50367,0.50367,0.503182,0.502693,0.501472,0.49781,0.494881,0.490242,0.486091,0.480476,0.475349,0.470466,0.467048,0.462654,0.454597,0.449958,0.446296,0.443366,0.441413,0.437751,0.435798,0.435554,0.435554,0.43653,0.438727,0.440925,0.445563,0.44947,0.453864,0.457771,0.465583,0.469978,0.471687,0.473152,0.478279,0.482673,0.48658,0.49073,0.496101,0.499275,0.50367,0.505379,0.506111,0.506355,0.506355,0.50367,0.501472,0.49781,0.492683,0.487068,0.4795,0.471443,0.465095,0.461189,0.457527,0.450202,0.447761,0.446296,0.444343,0.443854,0.440192,0.438727,0.437263,0.43653,0.436286,0.438483,0.440681,0.443854,0.450446,0.454108,0.458259,0.46363,0.468025,0.471443,0.473396,0.481453,0.487556,0.491463,0.49659,0.499519,0.502449,0.505135,0.504891,0.505623,0.504402,0.501228,0.496834,0.493416,0.489021,0.484138,0.482429,0.475837,0.471199,0.468757,0.466072,0.461433,0.455329,0.452155,0.449226,0.445563,0.444343,0.439948,0.438239,0.437018,0.43653,0.437995,0.43946,0.443366,0.446052,0.451423,0.453864,0.458503,0.46363,0.468757,0.471931,0.475105,0.482673,0.488533,0.491463,0.492439,0.494148,0.49659,0.500496,0.501717,0.503426,0.503426,0.501961,0.500984,0.500252,0.495613,0.489998,0.486091,0.479988,0.474617,0.469734,0.466072,0.4607,0.453132,0.449714,0.448493,0.445563,0.442634,0.43946,0.436774,0.433356,0.432136,0.431891,0.434089,0.436774,0.440925,0.447517,0.453132,0.458991,0.465339,0.471443,0.475105,0.478523,0.485603,0.489509,0.492927,0.496101,0.498054,0.501472,0.503426,0.504646,0.505135,0.503182,0.500984,0.499275,0.49781,0.493172,0.488045,0.484382,0.477546,0.472663,0.469734,0.467781,0.463142,0.455573,0.450935,0.447761,0.44361,0.440192,0.436286,0.434333,0.4336,0.435554,0.435309,0.437995,0.441413,0.444587,0.449714,0.453376,0.458259,0.465583,0.47071,0.473884,0.476326,0.483406,0.4878,0.491218,0.495125,0.500008,0.503182,0.505379,0.505867,0.505867,0.505867,0.504891,0.502693,0.498787,0.493904,0.488289,0.482429,0.474861,0.469734,0.468269,0.467292,0.462898,0.455818,0.452644,0.450446,0.445808,0.442634,0.436286,0.433112,0.430915,0.431159,0.43238,0.436286,0.43946,0.442634,0.448249,0.452644,0.458991,0.467048,0.471931,0.474617,0.478279,0.482673,0.485603,0.487556,0.489509,0.492683,0.495857,0.498787,0.501228,0.501472,0.501717,0.498787,0.498054,0.496834,0.492927,0.488045,0.485115,0.480476,0.475105,0.471687,0.469001,0.463874,0.457771,0.452644,0.448981,0.445075,0.442145,0.437263,0.437263,0.436774,0.436286,0.43653,0.438239,0.440192,0.445075,0.450202,0.454841,0.460456,0.466072,0.470954,0.474372,0.47657,0.484138,0.488533,0.492683,0.495857,0.498299,0.501717,
