0.311772,0.293462,0.263676,0.275395,0.313725,0.358648,0.39527,0.420417,0.448493,0.493172,0.531502,0.540047,0.519051,0.489998,0.466072,0.453376,0.458015,0.475349,0.513924,0.565438,0.571298,0.527352,0.515877,0.55079,0.581064,0.601083,0.608164,0.613291,0.610849,0.596933,0.600107,0.607675,0.614023,0.611826,0.574472,0.498787,0.413092,0.324468,0.254154,0.214603,0.200931,0.231205,0.292241,0.353277,0.407721,0.445563,0.451911,0.434821,0.426032,0.41236,0.407477,0.466316,0.586191,0.662364,0.638926,0.570565,0.507576,0.472663,0.461189,0.438972,0.482918,0.601083,0.726818,0.799084,0.806409,0.725109,0.610117,0.494148,0.381353,0.268803,0.167239,0.117922,0.148684,0.217777,0.270756,0.265873,0.268803,0.355474,0.46363,0.515877,0.523934,0.510018,0.4878,0.457282,0.422126,0.423835,0.453864,0.485603,0.501472,0.504158,0.505867,0.539559,0.576669,0.592782,0.605478,0.621347,0.600839,0.566903,0.534188,0.507332,0.49781,0.454841,0.370855,0.302983,0.333745,0.434089,0.50367,0.53492,0.546883,0.549081,0.563485,0.582528,0.613291,0.656748,0.682139,0.648447,0.557626,0.452399,0.352544,0.27393,0.242924,0.239506,0.243412,0.252689,0.276371,0.312993,0.374273,0.464363,0.514168,0.505623,0.48072,0.46363,0.452155,0.434089,0.407965,0.385748,0.373053,0.377935,0.405524,0.441657,0.474128,0.509773,0.536385,0.570321,0.596201,0.602792,0.613291,0.601816,0.582528,0.583749,0.591073,0.613535,0.638926,0.650645,0.638193,0.610849,0.578134,0.556405,0.552255,0.508553,0.438972,0.338872,0.279057,0.314702,0.354253,0.343999,0.262455,0.201419,0.214603,0.278325,0.361578,0.425788,0.435798,0.404791,0.386969,0.388922,0.4065,0.42652,0.458503,0.495125,0.52076,0.520027,0.512947,0.525154,0.551766,0.573739,0.58497,0.60206,0.619394,0.636728,0.62208,0.5879,0.557382,0.509285,0.470222,0.453376,0.486336,0.521981,0.526619,0.504158,0.436286,0.344732,0.297368,0.309575,0.317144,0.330571,0.401862,0.483894,0.525887,0.518563,0.479744,0.434821,0.386481,0.339849,0.329107,0.344488,0.388678,0.433356,0.447028,0.437751,0.439948,0.474861,0.516121,0.556161,0.570565,0.571786,0.58912,0.592782,0.594003,0.628428,0.68922,0.753429,0.793225,0.767834,0.688731,0.582284,0.494392,0.417731,0.349615,0.307622,0.314214,0.347906,0.352544,0.326421,0.293217,0.290288,0.327642,0.33228,0.296147,0.26099,0.251957,0.277104,0.305913,0.317144,0.319341,0.337163,0.369879,0.407965,0.437995,0.478035,0.539559,0.571298,0.565194,0.565682,0.584237,0.60914,0.62501,0.606943,0.58497,0.59205,0.618418,0.634775,0.61622,0.593759,0.591806,0.587655,0.584482,0.553475,0.496101,0.471687,0.476326,0.470466,0.419196,0.357671,0.317144,0.333501,0.389899,0.437751,0.47071,0.483406,0.487556,0.500252,0.523445,0.513924,0.463386,0.409186,0.388922,0.397955,0.409918,0.425299,0.460212,0.488533,0.489509,0.480476,0.454353,0.435065,0.444099,0.49366,0.582284,0.646983,0.646738,0.583993,0.526864,0.487312,0.435309,0.386481,0.32398,0.267826,0.268315,0.314214,0.390143,0.451667,0.460212,0.45069,0.466072,0.50074,0.518074,0.537362,0.617441,0.70045,0.73341,0.735607,0.687266,0.593515,0.496834,0.412848,0.309575,0.161624,0.0397955,0,0.0471199,0.157717,0.256596,0.299077,0.332036,0.39649,0.465583,0.527352,0.577401,0.614267,0.65333,0.701183,0.732189,0.742199,0.732677,0.709239,0.682628,0.665537,0.67628,0.699474,0.71754,0.700694,0.60621,0.489021,0.356451,0.205814,0.0739757,0.000244144,0,0.0827649,0.1897,0.274418,0.360845,0.458015,0.528084,0.54786,0.535653,0.516609,0.511482,0.531991,0.565194,0.579599,0.562264,0.53492,0.53077,0.551034,0.555428,0.536141,0.510018,0.481941,0.472175,0.513924,0.58497,0.638437,0.697276,0.736828,0.723156,0.703868,0.670176,0.641611,0.596201,0.566415,0.516854,0.402594,0.297124,0.251713,0.254398,0.284428,0.303716,0.266117,0.173831,0.109133,0.1084,0.164797,0.248295,0.322271,0.341314,0.337163,0.382818,0.449958,0.494636,0.526375,0.545907,0.558846,0.58204,0.628916,0.693126,0.726574,0.733165,0.720958,0.654551,0.547372,0.444343,0.394537,0.403815,0.44947,0.482918,0.481453,0.491707,0.539071,0.583261,0.594736,0.548348,0.48365,0.427253,0.381109,0.355962,0.346929,0.353521,0.37232,0.401617,0.427253,0.437751,0.42237,0.423835,0.414069,0.392096,0.387213,0.389654,0.385016,0.38233,0.395758,0.416754,0.444831,0.51368,0.618662,0.710704,0.763195,0.761242,0.741955,0.705089,0.635019,0.549569,0.490242,0.482429,0.464607,0.396246,0.326665,0.30518,0.343999,0.388434,0.406256,0.400153,0.403815,0.444587,0.492195,0.51368,0.511482,0.476081,0.42237,0.393317,0.375006,0.346685,0.326177,0.324224,0.36231,0.420661,0.471199,0.493904,0.499275,0.507088,0.521736,0.533455,0.536141,0.530526,0.515633,0.50782,0.525399,0.552987,0.555673,0.548592,0.553964,0.591562,0.606699,0.603525,0.564218,0.517586,0.497566,0.487312,0.472419,0.436286,0.374273,0.368414,0.406744,0.453132,0.483894,0.497322,0.506111,0.507332,0.514656,0.527108,0.536385,0.519051,0.488045,0.454353,0.431403,0.437263,0.442145,0.431159,0.445808,0.45069,0.415534,0.312993,0.184329,0.102785,0.113527,0.203128,0.307866,0.397223,0.460945,0.511482,0.563485,0.609873,0.61915,0.596689,0.572519,0.519539,0.486336,0.504402,0.532479,0.539559,0.516121,0.517342,0.594247,0.707042,0.777356,0.776867,0.711925,0.626963,0.528084,0.39649,0.255131,0.161379,0.127199,0.146731,0.179202,0.237797,0.323247,0.374273,0.395514,0.407477,0.393317,0.381109,0.405524,0.462165,0.508797,0.5149,0.499519,0.498787,0.518563,0.552255,0.595956,0.678477,0.748302,0.771008,0.763195,0.753185,0.724865,0.659678,0.576913,0.497078,0.400153,0.329351,0.319829,0.34229,0.373541,0.381842,0.374029,0.367193,0.39649,0.435798,0.473152,0.471199,0.441169,0.394781,0.333745,0.298344,0.267826,0.266606,0.295171,0.344732,0.385504,0.404303,0.41236,0.404791,0.412116,0.437018,0.469245,0.505379,0.539071,0.566171,0.590829,0.624521,0.668956,0.68043,0.644053,0.580575,0.543709,0.550301,0.576181,0.62208,0.684092,0.692393,0.644053,0.567391,0.502449,0.457527,0.457282,0.494881,0.528084,0.549081,0.550057,0.517342,0.417243,0.310796,0.245121,0.182376,0.127932,0.113527,0.159182,0.230716,0.28101,0.319829,0.341314,0.364508,0.419684,0.490974,0.552987,0.584237,0.581796,0.574716,0.586679,0.613291,0.656504,0.691173,0.70045,0.689464,0.656504,0.591562,0.481453,0.410895,0.374517,0.340826,0.348882,0.424079,0.523201,0.572519,0.576181,0.558846,0.522713,0.465339,0.416022,0.369635,0.34815,0.358648,0.372564,0.396002,0.43238,0.451423,0.441657,0.401373,0.374029,0.368414,0.377935,0.419684,0.492439,0.552987,0.565927,0.535653,0.475105,0.400641,0.378668,0.419928,0.495125,0.560067,0.591806,0.596445,0.56202,0.549325,0.563729,0.573495,0.58497,0.571542,0.492439,0.423102,0.429694,0.504891,0.561532,0.546883,0.493172,0.448005,0.409674,0.373785,0.339361,0.312016,0.305913,0.314458,0.347417,0.387701,0.447517,0.508797,0.553719,0.595224,0.617929,0.588876,0.513436,0.41651,0.331304,0.319829,0.402594,0.488777,0.545907,0.594736,0.608408,0.583505,0.526864,0.437995,0.339117,0.271733,0.256352,0.275883,0.319585,0.392584,0.457771,0.487556,0.495613,0.525643,0.555917,0.578866,0.608896,0.642344,0.65626,0.655039,0.657969,0.65919,0.634287,0.581308,0.496834,0.414069,0.351324,0.290288,0.260258,0.251469,0.271489,0.286625,0.282231,0.282475,0.296147,0.31519,0.350103,0.402838,0.452399,0.498054,0.534188,0.567391,0.602548,0.650889,0.676036,0.672862,0.679942,0.688731,0.676768,0.630137,0.581064,0.534432,0.489509,0.452399,0.431647,0.451179,0.507088,0.541024,0.545907,0.58912,0.653574,0.681163,0.62916,0.475837,0.323247,0.24097,0.224369,0.227543,0.226566,0.248783,0.281987,0.302007,0.323247,0.342535,0.334966,0.331304,0.347906,0.422126,0.552743,0.639658,0.652354,0.598398,0.538582,0.514168,0.519539,0.515145,0.450446,0.403082,0.431403,0.501961,0.533455,0.527108,0.499519,0.497322,0.532479,0.561776,0.591562,0.624521,0.685313,0.748791,0.763195,0.715099,0.638193,0.547127,0.442634,0.322271,0.215824,0.132326,0.0944839,0.0739757,0.0471199,0.109133,0.242679,0.323491,0.33228,0.301518,0.310552,0.36231,0.455085,0.557137,0.636728,0.692638,0.720226,0.698985,0.618906,0.572274,0.590341,0.626719,0.657237,0.68922,0.733654,0.752941,0.74757,0.67628,0.567391,0.466804,0.374029,0.310063,0.26807,0.257084,0.265873,0.270756,0.280522,0.29395,0.292973,0.273442,0.26807,0.298344,0.33814,0.35816,0.371832,0.410407,0.456306,0.498299,0.535164,0.545174,0.529061,0.52784,0.532479,0.53492,0.57789,0.631357,0.656748,0.653086,0.6421,0.608408,0.558846,0.516365,0.455818,0.395758,0.391608,0.432624,0.476326,0.535653,0.618418,0.670665,0.679698,0.685557,0.693614,0.654063,0.586191,0.547616,0.477546,0.42359,0.409918,0.382818,0.287846,0.172122,0.103517,0.104738,0.143557,0.220218,0.314702,0.376471,0.384771,0.393805,0.437018,0.4795,0.514168,0.552743,0.569833,0.551034,0.533211,0.537118,0.549569,0.536141,0.524422,0.548348,0.563973,0.555428,0.535164,0.52076,0.51783,0.47779,0.398199,0.344976,0.342535,0.384771,0.445319,0.502937,0.533944,0.55201,0.568368,0.581308,0.593515,0.593759,0.579599,0.554208,0.547616,0.570565,0.605478,0.62916,0.573739,0.465583,0.331792,0.217777,0.198489,0.241947,0.282475,0.304936,0.361334,0.473152,0.556405,0.533944,0.439948,0.33106,0.274418,0.262943,0.294438,0.342535,0.380133,0.415534,0.448737,0.509285,0.612314,0.756115,0.865736,0.875746,0.80763,0.719982,0.656016,0.659922,0.684825,0.638926,0.551522,0.448981,0.348394,0.23682,0.151125,0.0910658,0.0393072,
0.486091,0.436774,0.40528,0.36817,0.310552,0.252201,0.229252,0.252445,0.31519,0.38526,0.424079,0.432136,0.419928,0.403082,0.409186,0.43653,0.486091,0.534676,0.580575,0.608408,0.605478,0.593027,0.577646,0.580087,0.594247,0.619883,0.640879,0.645762,0.629648,0.608652,0.578378,0.531014,0.486091,0.455573,0.426764,0.400641,0.378668,0.344488,0.330327,0.336431,0.347906,0.355962,0.363531,0.374273,0.403815,0.453376,0.472908,0.480232,0.482429,0.460945,0.436774,0.430671,0.449226,0.467536,0.460945,0.464363,0.500984,0.542,0.541512,0.531991,0.533455,0.531258,0.515389,0.498543,0.496101,0.509285,0.534188,0.551522,0.580087,0.60621,0.627695,0.615,0.5879,0.548592,0.510994,0.449958,0.355962,0.268315,0.245853,0.289799,0.313237,0.302007,0.324712,0.397955,0.453864,0.464363,0.459236,0.448005,0.455085,0.452155,0.416999,0.364752,0.317388,0.321782,0.353033,0.386969,0.440436,0.508064,0.556893,0.576913,0.593027,0.623056,0.63917,0.615488,0.576425,0.592538,0.625498,0.641855,0.605966,0.528573,0.448737,0.403571,0.377203,0.326177,0.278325,0.28687,0.319585,0.350591,0.379156,0.416754,0.448493,0.455329,0.462409,0.476814,0.490486,0.491707,0.485847,0.47779,0.445808,0.415045,0.39527,0.390387,0.401373,0.41529,0.441169,0.476081,0.504646,0.514656,0.52076,0.533944,0.548592,0.542245,0.531014,0.518074,0.502693,0.503914,0.522713,0.541268,0.560555,0.5608,0.578866,0.641855,0.702159,0.726329,0.691173,0.595224,0.487068,0.402594,0.350835,0.302983,0.285893,0.296147,0.303471,0.310552,0.326421,0.345708,0.353277,0.349126,0.351812,0.365728,0.381598,0.377935,0.371588,0.384771,0.403815,0.435065,0.469734,0.507332,0.571786,0.644541,0.673106,0.665293,0.650156,0.638193,0.631113,0.615488,0.58204,0.555673,0.542977,0.52369,0.479255,0.458259,0.505623,0.535409,0.527108,0.48072,0.428473,0.412116,0.409918,0.389654,0.319585,0.215091,0.148684,0.165042,0.246342,0.349859,0.409674,0.396979,0.366461,0.33814,0.346197,0.407477,0.502693,0.566415,0.590341,0.56788,0.523201,0.476081,0.428962,0.390631,0.375006,0.381109,0.38526,0.404547,0.450935,0.491707,0.541268,0.584726,0.590585,0.559823,0.543221,0.531014,0.51783,0.538338,0.560311,0.56202,0.576181,0.625742,0.653819,0.63917,0.617197,0.608652,0.59913,0.570809,0.529061,0.479255,0.458503,0.44947,0.405035,0.308598,0.246098,0.244388,0.269291,0.31519,0.352056,0.371344,0.346929,0.346685,0.368902,0.400885,0.432136,0.499519,0.566415,0.592294,0.587655,0.588144,0.580819,0.558358,0.521736,0.47779,0.410163,0.389654,0.426276,0.496101,0.569345,0.619394,0.62916,0.610117,0.564462,0.503182,0.458503,0.439704,0.438483,0.445563,0.443854,0.424567,0.396979,0.395026,0.408453,0.402106,0.377447,0.363775,0.351568,0.339605,0.339605,0.350347,0.389654,0.446052,0.487556,0.503182,0.504158,0.515389,0.563485,0.620615,0.667491,0.688487,0.675303,0.638437,0.592782,0.52784,0.463142,0.419196,0.422126,0.462898,0.498787,0.525154,0.537362,0.531502,0.516609,0.516365,0.509041,0.444831,0.36231,0.303227,0.282719,0.28687,0.295171,0.320073,0.316411,0.298344,0.289067,0.293706,0.317876,0.357427,0.420172,0.534188,0.636484,0.691661,0.724376,0.735363,0.703868,0.63209,0.542977,0.461677,0.421393,0.418219,0.401862,0.372564,0.343023,0.330571,0.368414,0.424567,0.445563,0.448249,0.453864,0.471199,0.509529,0.538094,0.55079,0.549813,0.542245,0.526375,0.51783,0.532235,0.551278,0.599619,0.652842,0.67628,0.633799,0.536629,0.464363,0.46363,0.45362,0.398932,0.313237,0.255863,0.250736,0.261234,0.282719,0.316655,0.320317,0.30396,0.315923,0.364508,0.432868,0.512703,0.574472,0.615488,0.6421,0.654307,0.667979,0.683116,0.672374,0.617441,0.586191,0.5691,0.588144,0.629892,0.668223,0.659678,0.579355,0.490486,0.453376,0.442145,0.466316,0.460456,0.383795,0.312749,0.294926,0.310796,0.305425,0.221195,0.134524,0.11841,0.137942,0.17847,0.259037,0.359869,0.420661,0.446296,0.458991,0.4795,0.505135,0.521492,0.520272,0.519539,0.533455,0.576669,0.62623,0.644297,0.63624,0.617685,0.594247,0.598886,0.621103,0.637705,0.635019,0.624521,0.62501,0.60914,0.588144,0.594736,0.628916,0.63624,0.643565,0.686778,0.702892,0.673594,0.607431,0.519783,0.376715,0.205325,0.104982,0.0327153,0.000488289,0.000244144,0.0617685,0.164065,0.288334,0.370611,0.389899,0.398199,0.419928,0.448249,0.478279,0.510506,0.548592,0.574716,0.555673,0.550057,0.574716,0.606943,0.619394,0.615,0.650645,0.660166,0.661875,0.659434,0.623301,0.573007,0.53492,0.501228,0.44654,0.408698,0.408942,0.433356,0.441413,0.419928,0.393805,0.362554,0.349615,0.344488,0.324712,0.300298,0.289311,0.31812,0.36231,0.384039,0.380865,0.380865,0.384283,0.400153,0.419928,0.430915,0.432624,0.453376,0.494636,0.535897,0.58912,0.638926,0.672374,0.671153,0.653086,0.641855,0.630137,0.619638,0.60499,0.595712,0.649912,0.712902,0.734386,0.688731,0.612558,0.516854,0.40235,0.327398,0.286137,0.235355,0.207034,0.204349,0.219974,0.272953,0.363531,0.517586,0.668467,0.730968,0.711437,0.624521,0.491707,0.340337,0.179446,0.0300298,0.000244144,0.000244144,0.0561532,0.168215,0.277104,0.390631,0.508797,0.586191,0.616709,0.603769,0.57496,0.561288,0.581064,0.653574,0.73048,0.796643,0.841077,0.864515,0.842786,0.767834,0.667979,0.564218,0.470466,0.38941,0.363531,0.374762,0.354986,0.280278,0.184817,0.12134,0.109133,0.147951,0.232181,0.323735,0.38819,0.447517,0.501961,0.5337,0.55494,0.5608,0.558602,0.573495,0.585458,0.586435,0.592782,0.600595,0.604746,0.609628,0.573495,0.499519,0.486091,0.558846,0.611826,0.614511,0.573251,0.496834,0.409918,0.350591,0.326909,0.271733,0.227787,0.240238,0.31519,0.410651,0.466072,0.494636,0.533455,0.586923,0.635752,0.644053,0.614023,0.571298,0.516854,0.464607,0.429694,0.397955,0.349371,0.244388,0.158694,0.117433,0.144289,0.238041,0.351568,0.431159,0.473396,0.498543,0.518807,0.552743,0.597177,0.610117,0.593271,0.595224,0.622568,0.659922,0.704356,0.743664,0.765881,0.736095,0.649668,0.534676,0.436286,0.390387,0.373541,0.385992,0.419196,0.448249,0.467536,0.500984,0.545418,0.565927,0.584726,0.595712,0.579843,0.548348,0.500008,0.407965,0.287114,0.187015,0.11426,0.109621,0.168215,0.225834,0.274418,0.327398,0.371832,0.403082,0.423102,0.45948,0.51783,0.557626,0.559823,0.533944,0.48658,0.412116,0.370855,0.401862,0.49659,0.593271,0.647227,0.658213,0.646006,0.616464,0.585702,0.567636,0.566415,0.584237,0.59498,0.597177,0.598886,0.578378,0.536873,0.492683,0.459968,0.409674,0.361334,0.315435,0.277348,0.249516,0.244633,0.265141,0.301762,0.324224,0.35108,0.400397,0.45069,0.465339,0.463874,0.491463,0.546883,0.587167,0.598642,0.605234,0.610605,0.611337,0.616709,0.614267,0.608652,0.609628,0.620615,0.575937,0.486824,0.444587,0.44239,0.434821,0.405035,0.393317,0.383795,0.3794,0.3794,0.385992,0.416754,0.454353,0.467292,0.461921,0.455573,0.431891,0.403815,0.407233,0.418708,0.464118,0.526619,0.583017,0.613535,0.63209,0.649912,0.628916,0.573739,0.504891,0.427253,0.360113,0.307866,0.247074,0.217533,0.247318,0.322271,0.408453,0.493416,0.596445,0.715343,0.763928,0.702403,0.601328,0.605234,0.691417,0.782727,0.7776,0.67921,0.53077,0.355474,0.167239,0.0246586,0.000488289,0.000244144,0.000976577,0.0593271,0.177005,0.328618,0.445808,0.514168,0.536629,0.536873,0.510018,0.488045,0.454108,0.419928,0.393561,0.410651,0.477546,0.5149,0.528573,0.535164,0.534676,0.534432,0.52076,0.509041,0.545907,0.600839,0.62623,0.632578,0.646738,0.665049,0.684825,0.685313,0.68922,0.688243,0.67042,0.632822,0.57496,0.491463,0.404303,0.317144,0.237552,0.194583,0.206546,0.26099,0.302983,0.320317,0.33228,0.363287,0.405035,0.437995,0.46949,0.477302,0.470466,0.456794,0.431647,0.410163,0.40528,0.440436,0.508553,0.611337,0.681651,0.695079,0.691417,0.685069,0.665049,0.603769,0.517586,0.440681,0.424079,0.486824,0.552255,0.554452,0.528817,0.476081,0.447028,0.440436,0.392828,0.357427,0.324224,0.314458,0.338628,0.366217,0.379889,0.385992,0.400397,0.406012,0.442634,0.498054,0.547372,0.565438,0.531746,0.487312,0.469978,0.437507,0.396002,0.346197,0.32398,0.333013,0.364019,0.388678,0.405524,0.42945,0.472419,0.523201,0.576913,0.595468,0.573251,0.550057,0.563485,0.596445,0.604746,0.578866,0.553964,0.556405,0.56788,0.593027,0.628916,0.642344,0.615488,0.567391,0.509041,0.432136,0.380133,0.33814,0.329107,0.326177,0.323735,0.310063,0.30103,0.304204,0.330571,0.383795,0.425544,0.425055,0.418219,0.378424,0.317632,0.302739,0.351324,0.428717,0.490486,0.552255,0.570321,0.573739,0.575937,0.555184,0.514412,0.47364,0.403082,0.349371,0.393805,0.511727,0.58497,0.607675,0.656504,0.71339,0.749767,0.754894,0.750744,0.7234,0.63917,0.522225,0.425544,0.374273,0.355474,0.340581,0.298589,0.244877,0.214115,0.221927,0.27686,0.332036,0.361334,0.37232,0.365484,0.364752,0.379889,0.385748,0.396735,0.401373,0.417731,0.450446,0.478767,0.505379,0.565682,0.624765,0.666026,0.726574,0.784192,0.792493,0.739025,0.651865,0.593759,0.52369,0.431159,0.347906,0.301518,0.290532,0.29688,0.302983,0.351324,0.418463,0.436774,0.427497,0.420661,0.427253,0.440192,0.449714,0.447517,0.454597,0.468513,0.466072,0.453132,0.45948,0.521736,0.595224,0.630381,0.61622,0.556405,0.486091,0.434821,0.390875,0.36939,0.370855,0.389899,0.427985,0.470222,0.501961,0.532235,0.573251,0.605478,0.591806,0.562264,0.543465,0.518563,0.482918,0.446784,0.404303,0.352544,0.343755,0.372076,0.407721,0.43946,0.43653,0.441413,0.441169,0.439948,0.464607,0.497078,0.516365,0.529305,
0.381842,0.489509,0.519539,0.501961,0.444831,0.390631,0.372808,0.363043,0.320073,0.300053,0.363287,0.497322,0.587655,0.610117,0.615976,0.620127,0.630381,0.625498,0.597421,0.558114,0.523201,0.503182,0.491707,0.53492,0.587411,0.642832,0.655283,0.579355,0.469734,0.383307,0.351568,0.333013,0.303716,0.303227,0.331792,0.35816,0.387457,0.401129,0.39234,0.38819,0.402594,0.476326,0.575448,0.640635,0.696544,0.731456,0.711437,0.628916,0.539071,0.463142,0.360601,0.248051,0.15967,0.136721,0.171633,0.210941,0.274418,0.391363,0.50367,0.580331,0.619394,0.620859,0.589853,0.542733,0.538338,0.519539,0.468757,0.445075,0.504646,0.583505,0.608652,0.570077,0.52491,0.491218,0.467781,0.48365,0.514168,0.605966,0.759045,0.854017,0.853773,0.777356,0.648447,0.493172,0.277836,0.077882,0.000244144,0,0.000244144,0,0.018555,0.151614,0.286625,0.373541,0.43653,0.510994,0.591318,0.659434,0.688243,0.685313,0.665293,0.643809,0.613291,0.568612,0.537362,0.527596,0.538827,0.563485,0.593759,0.602548,0.611582,0.615732,0.594736,0.552255,0.49781,0.452399,0.425055,0.411383,0.417487,0.443122,0.459236,0.457282,0.454353,0.457038,0.472419,0.449226,0.403082,0.346197,0.292973,0.248539,0.241459,0.27393,0.331304,0.400153,0.487068,0.56788,0.613046,0.636973,0.63624,0.570565,0.493904,0.480964,0.484627,0.47071,0.482673,0.539559,0.611337,0.630381,0.594003,0.532967,0.481453,0.475105,0.496834,0.538094,0.578866,0.611337,0.591073,0.539559,0.499031,0.475837,0.445075,0.388922,0.292729,0.250736,0.260746,0.270024,0.235599,0.202396,0.198489,0.202152,0.21973,0.270512,0.347906,0.450202,0.535409,0.564706,0.562753,0.558602,0.551766,0.574716,0.599863,0.578622,0.54493,0.506111,0.492439,0.480476,0.469001,0.462165,0.461433,0.457771,0.45655,0.491218,0.555673,0.616953,0.664561,0.685313,0.686778,0.659922,0.597421,0.541756,0.491951,0.435798,0.385016,0.360601,0.397467,0.465827,0.474861,0.400641,0.344244,0.32398,0.351812,0.370611,0.369146,0.344244,0.325689,0.320806,0.336187,0.356695,0.395514,0.489509,0.602304,0.681407,0.688487,0.622324,0.521736,0.413336,0.343267,0.345953,0.423102,0.513436,0.566659,0.584237,0.57789,0.583261,0.58497,0.570809,0.545174,0.532235,0.537606,0.53785,0.510506,0.464851,0.437507,0.410651,0.375738,0.364019,0.381598,0.396002,0.397711,0.422126,0.438727,0.433112,0.401129,0.364508,0.360601,0.379889,0.428473,0.509529,0.549813,0.518074,0.484382,0.480476,0.49781,0.517586,0.537362,0.557137,0.562753,0.528817,0.505623,0.5149,0.535164,0.563973,0.575692,0.535409,0.480232,0.445319,0.464607,0.552987,0.643565,0.708263,0.702647,0.638926,0.539559,0.446784,0.3523,0.256596,0.151369,0.0720226,0.052491,0.0771496,0.146731,0.253422,0.354009,0.431647,0.478767,0.484627,0.481453,0.455573,0.421637,0.396979,0.390875,0.448981,0.555673,0.654551,0.732189,0.775158,0.788586,0.778332,0.73463,0.650645,0.536385,0.420172,0.333501,0.333013,0.414557,0.46949,0.471199,0.484382,0.499763,0.522713,0.508553,0.468025,0.424079,0.393072,0.361578,0.343755,0.372076,0.4065,0.433356,0.452888,0.465339,0.482429,0.489021,0.457038,0.416022,0.401862,0.44361,0.503182,0.529061,0.494636,0.457771,0.455329,0.465583,0.463386,0.448249,0.461189,0.499275,0.554208,0.599863,0.649424,0.688731,0.687999,0.649912,0.590341,0.518318,0.441657,0.395514,0.384771,0.404791,0.383551,0.362554,0.37232,0.399664,0.427253,0.46949,0.531991,0.568124,0.596201,0.612558,0.571298,0.471931,0.360601,0.325444,0.32105,0.278813,0.22388,0.180911,0.176516,0.221195,0.265629,0.329351,0.407477,0.497078,0.623789,0.752453,0.838148,0.861097,0.829603,0.721691,0.539559,0.387945,0.313481,0.261234,0.276127,0.347417,0.409186,0.456306,0.48072,0.4878,0.494881,0.504402,0.525643,0.545663,0.55201,0.556649,0.582773,0.572274,0.51783,0.469245,0.435309,0.406989,0.407233,0.434577,0.478523,0.468025,0.450935,0.424323,0.419684,0.402106,0.330816,0.261967,0.208743,0.190677,0.230228,0.320073,0.428962,0.519783,0.578622,0.625742,0.656016,0.664561,0.681163,0.726085,0.756115,0.767102,0.747814,0.697276,0.655283,0.615976,0.526131,0.421393,0.360845,0.346929,0.341802,0.352789,0.343755,0.324956,0.323491,0.358892,0.385992,0.393561,0.397467,0.375006,0.330327,0.298589,0.272709,0.265141,0.292973,0.344976,0.423346,0.489509,0.528328,0.555917,0.58204,0.600351,0.596445,0.573007,0.548348,0.549325,0.561776,0.559091,0.540291,0.540291,0.602792,0.6421,0.627695,0.591562,0.592294,0.615244,0.640146,0.678477,0.684337,0.636728,0.573983,0.499031,0.436774,0.345464,0.213626,0.115236,0.0798352,0.0839857,0.131594,0.207279,0.278325,0.333745,0.35938,0.33814,0.340337,0.377691,0.407233,0.424079,0.456794,0.488533,0.504402,0.513924,0.540536,0.586435,0.626963,0.654063,0.700694,0.736339,0.758801,0.754162,0.706554,0.637705,0.562264,0.497322,0.434089,0.369635,0.335454,0.357671,0.439216,0.548348,0.612314,0.604013,0.547127,0.519539,0.508797,0.501961,0.4795,0.445808,0.398688,0.312749,0.207523,0.144289,0.140627,0.170657,0.194339,0.224613,0.293706,0.388678,0.478035,0.532235,0.558114,0.546883,0.505623,0.464118,0.470222,0.475837,0.476326,0.522957,0.615976,0.684581,0.725353,0.745861,0.768811,0.80763,0.811292,0.756359,0.651377,0.52076,0.384283,0.253422,0.213626,0.279545,0.348394,0.369146,0.384771,0.420905,0.420172,0.397467,0.41651,0.478035,0.472663,0.429694,0.371832,0.285649,0.187503,0.183841,0.247074,0.303227,0.330083,0.363531,0.372076,0.370123,0.421393,0.521248,0.615488,0.685069,0.762707,0.800061,0.834485,0.860609,0.852796,0.795178,0.728527,0.664561,0.534432,0.40235,0.31104,0.240238,0.289067,0.401862,0.447761,0.433112,0.425055,0.419684,0.389654,0.364508,0.343267,0.316167,0.288823,0.273442,0.284184,0.350347,0.443366,0.529549,0.591073,0.59791,0.539315,0.44361,0.354498,0.323247,0.357427,0.40235,0.443366,0.467536,0.478523,0.500984,0.538827,0.550546,0.553964,0.542245,0.530037,0.532967,0.549081,0.536873,0.532235,0.537118,0.521981,0.515633,0.540536,0.600839,0.654307,0.677745,0.669444,0.614023,0.507088,0.395758,0.303471,0.303227,0.34229,0.366949,0.370855,0.368414,0.38819,0.40528,0.390631,0.343023,0.329107,0.362799,0.407233,0.45655,0.485603,0.482673,0.440925,0.412604,0.410163,0.427253,0.4607,0.506844,0.538827,0.534676,0.497078,0.440436,0.40235,0.396979,0.404791,0.464851,0.541024,0.627207,0.680919,0.667491,0.634287,0.635752,0.644785,0.64918,0.630869,0.599374,0.564462,0.526131,0.439216,0.331304,0.300542,0.34522,0.382086,0.397711,0.405035,0.393805,0.398199,0.400641,0.385748,0.345953,0.294926,0.278325,0.308598,0.341314,0.344244,0.314702,0.321294,0.379156,0.461921,0.537362,0.593027,0.628183,0.630137,0.610117,0.602304,0.614267,0.656504,0.68336,0.706065,0.717296,0.671397,0.59913,0.548592,0.506355,0.460456,0.406256,0.370611,0.370367,0.397711,0.45362,0.494392,0.492683,0.461921,0.421149,0.442878,0.472419,0.455329,0.394781,0.327398,0.262455,0.225345,0.236576,0.254154,0.294194,0.347906,0.380133,0.389166,0.380865,0.37232,0.379156,0.374517,0.360357,0.381598,0.422126,0.452155,0.501228,0.612558,0.72462,0.764172,0.757336,0.732189,0.683848,0.614511,0.552499,0.519051,0.526619,0.535897,0.499031,0.451911,0.447272,0.460456,0.461677,0.416999,0.370855,0.36524,0.400397,0.477546,0.526619,0.516854,0.493416,0.457527,0.42237,0.424079,0.428473,0.416022,0.399664,0.415778,0.448249,0.485603,0.497078,0.495613,0.469001,0.481453,0.580087,0.743664,0.829847,0.820081,0.732677,0.634043,0.5608,0.522469,0.494636,0.425299,0.314702,0.248051,0.251957,0.289799,0.26807,0.219974,0.240238,0.264408,0.243656,0.248295,0.281743,0.299321,0.338872,0.394781,0.446784,0.492195,0.560067,0.608896,0.629648,0.628916,0.599619,0.525399,0.445563,0.411139,0.445319,0.520272,0.585214,0.653819,0.692393,0.689464,0.648692,0.583993,0.542977,0.500496,0.472175,0.472908,0.479988,0.46363,0.452399,0.492439,0.531258,0.559335,0.578134,0.582284,0.580331,0.575204,0.535164,0.490486,0.41944,0.314946,0.196536,0.136477,0.156008,0.217288,0.265629,0.29102,0.301518,0.314946,0.32398,0.352544,0.367437,0.355474,0.3794,0.467048,0.575204,0.649424,0.647471,0.630137,0.631601,0.629404,0.595468,0.52491,0.469001,0.470466,0.485603,0.519783,0.561044,0.617929,0.669932,0.685801,0.658213,0.590829,0.528084,0.468269,0.418219,0.400641,0.385992,0.363531,0.373297,0.446296,0.507576,0.489509,0.41944,0.327153,0.237064,0.235843,0.328374,0.41651,0.48365,0.510262,0.521981,0.519783,0.517586,0.542733,0.590097,0.590829,0.563485,0.536629,0.483406,0.431403,0.370367,0.299809,0.253666,0.270512,0.392584,0.536385,0.604501,0.613779,0.592782,0.529549,0.468269,0.413825,0.373297,0.392828,0.44239,0.48072,0.518807,0.561532,0.581308,0.61915,0.671641,0.667002,0.605478,0.539071,0.50074,0.448005,0.364019,0.258793,0.177737,0.170413,0.197513,0.252201,0.325689,0.414313,0.501228,0.539071,0.530282,0.537118,0.545174,0.538338,0.539315,0.539559,0.524422,0.487312,0.435554,0.386481,0.380621,0.411627,0.472663,0.554208,0.610605,0.648936,0.678477,0.685801,0.698985,0.719738,0.680674,0.568856,0.473152,0.406256,0.343999,0.292241,0.266117,0.2439,0.256107,0.337163,0.451911,0.575448,0.603525,0.539071,0.468025,0.408209,0.375494,0.393561,0.460212,0.496101,0.456794,0.456306,0.554696,0.638926,0.660166,0.589609,0.503914,0.47657,0.440925,0.376959,0.33106,0.318853,0.34522,0.390631,0.429694,0.442878,0.47364,0.53077,0.575937,0.565438,0.498787,0.452888,0.432624,0.403082,0.376959,0.37818,0.38941,0.402838,0.434333,0.461189,0.472175,0.468757,
0.513436,0.52369,0.550301,0.573251,0.600351,0.636484,0.65211,0.640146,0.60914,0.579355,0.568612,0.570321,0.568124,0.55494,0.553964,0.581308,0.611582,0.631113,0.598886,0.524422,0.445075,0.393561,0.375982,0.318364,0.238529,0.171389,0.142824,0.180911,0.228519,0.273442,0.326665,0.377691,0.427253,0.491218,0.557626,0.554452,0.488533,0.480476,0.562264,0.65626,0.699718,0.710216,0.692149,0.644785,0.558602,0.426764,0.285405,0.224857,0.217044,0.266606,0.394293,0.510994,0.568856,0.583993,0.583749,0.581552,0.551766,0.503182,0.448249,0.366949,0.340826,0.375494,0.416022,0.430915,0.410163,0.397711,0.416022,0.437018,0.430915,0.424079,0.422126,0.411627,0.42359,0.49073,0.566659,0.638437,0.710216,0.782238,0.794934,0.744396,0.639902,0.529305,0.505867,0.536629,0.523445,0.461433,0.421393,0.437263,0.418952,0.350835,0.272709,0.235843,0.210208,0.193851,0.210208,0.267338,0.351812,0.450935,0.550057,0.599863,0.597177,0.568856,0.536141,0.508797,0.455329,0.414557,0.44361,0.482429,0.49073,0.519539,0.56202,0.586679,0.573495,0.501961,0.421149,0.349859,0.285405,0.267826,0.279789,0.310796,0.384771,0.485603,0.558602,0.59498,0.615488,0.701427,0.806653,0.864515,0.841566,0.813245,0.776135,0.694102,0.579355,0.470222,0.380377,0.324712,0.276127,0.21387,0.122316,0.0749523,0.0566415,0.101808,0.2168,0.338628,0.413581,0.42237,0.42237,0.431647,0.430426,0.410163,0.404791,0.405768,0.407965,0.421393,0.453864,0.477058,0.511727,0.543221,0.557137,0.550546,0.540047,0.542,0.607431,0.741466,0.87892,0.940444,0.940688,0.908705,0.829358,0.702159,0.567147,0.505623,0.531502,0.542977,0.491951,0.363531,0.225101,0.107912,0.0173342,0.000244144,0,0.000244144,0.0725109,0.199466,0.340826,0.438727,0.477302,0.4878,0.498299,0.497078,0.487556,0.486336,0.5066,0.530037,0.538582,0.509285,0.463386,0.437507,0.474861,0.549081,0.598398,0.617197,0.634043,0.719249,0.790539,0.782727,0.739269,0.674083,0.602792,0.548836,0.504891,0.445808,0.36939,0.347906,0.335698,0.384527,0.498787,0.55494,0.525154,0.470954,0.406989,0.353521,0.328618,0.322759,0.294926,0.242191,0.193606,0.198245,0.249271,0.317876,0.377447,0.419196,0.485847,0.566171,0.578378,0.531991,0.472663,0.42237,0.417243,0.456794,0.487312,0.487068,0.452888,0.436042,0.457282,0.496834,0.557137,0.683848,0.848402,0.936782,0.940932,0.931899,0.871839,0.759045,0.549813,0.329351,0.20972,0.164065,0.148196,0.132815,0.108156,0.14136,0.279057,0.454108,0.572274,0.619883,0.618173,0.577646,0.52369,0.502205,0.494636,0.418219,0.325689,0.274662,0.214359,0.149416,0.142336,0.227787,0.302739,0.317144,0.337896,0.434333,0.512459,0.530526,0.526131,0.540536,0.542,0.547127,0.574716,0.640391,0.69337,0.72047,0.722667,0.71339,0.699474,0.66627,0.614267,0.576181,0.558358,0.556893,0.570077,0.551766,0.521981,0.451179,0.383307,0.353765,0.357671,0.394781,0.404547,0.33521,0.30396,0.339361,0.395026,0.434333,0.459236,0.41236,0.328374,0.253178,0.239261,0.302983,0.412116,0.532235,0.608408,0.634287,0.620859,0.588144,0.555917,0.503426,0.437263,0.396979,0.458015,0.593027,0.720714,0.7776,0.750988,0.679942,0.596933,0.49366,0.391608,0.315923,0.297612,0.316899,0.326909,0.345464,0.396735,0.431403,0.420172,0.383062,0.328374,0.302007,0.30811,0.338628,0.367926,0.413092,0.495857,0.561776,0.578866,0.574228,0.552743,0.542733,0.521492,0.494148,0.472663,0.44947,0.426032,0.444587,0.516609,0.595956,0.656992,0.711192,0.754406,0.777111,0.735851,0.685801,0.635264,0.605234,0.592294,0.546883,0.482673,0.417243,0.372076,0.316411,0.274662,0.287602,0.323491,0.32398,0.307378,0.346685,0.398444,0.396735,0.396735,0.392828,0.334722,0.248295,0.178958,0.154299,0.208499,0.306889,0.427253,0.532967,0.582773,0.590097,0.590585,0.600107,0.595224,0.581308,0.569589,0.594736,0.642832,0.664317,0.667002,0.645762,0.611337,0.55787,0.493172,0.440925,0.352056,0.23682,0.174075,0.217533,0.337896,0.457771,0.513191,0.516365,0.500984,0.511727,0.552255,0.57789,0.571542,0.583993,0.622568,0.596201,0.501228,0.382086,0.241459,0.10132,0.0419928,0.0510262,0.0827649,0.141604,0.272709,0.404547,0.493172,0.542245,0.582773,0.62501,0.654551,0.658946,0.671397,0.731456,0.800305,0.814466,0.760998,0.693858,0.606943,0.53785,0.467536,0.409186,0.397955,0.375006,0.346929,0.307866,0.311772,0.385016,0.459236,0.487312,0.494392,0.505623,0.526864,0.53492,0.548836,0.58204,0.620859,0.611093,0.560555,0.485359,0.398444,0.331792,0.304692,0.256352,0.171145,0.103029,0.0898451,0.194827,0.371099,0.552499,0.704356,0.789563,0.775158,0.70338,0.631357,0.522713,0.399908,0.35938,0.394049,0.419928,0.454841,0.531502,0.602548,0.630137,0.582528,0.553231,0.566903,0.592294,0.570077,0.490974,0.308598,0.145754,0.111086,0.184329,0.251957,0.255619,0.234623,0.267826,0.318853,0.359625,0.401862,0.454597,0.518807,0.606699,0.685801,0.700694,0.662119,0.62208,0.607431,0.604013,0.571786,0.527352,0.521736,0.510506,0.510994,0.554452,0.607675,0.604257,0.601572,0.638193,0.671397,0.611826,0.463386,0.303227,0.242435,0.283207,0.331792,0.363043,0.396246,0.45362,0.54493,0.625986,0.649668,0.60206,0.526619,0.440681,0.360601,0.286381,0.210208,0.161135,0.161868,0.179446,0.205081,0.267094,0.339117,0.39649,0.439704,0.476814,0.51368,0.54493,0.579599,0.614755,0.635264,0.638682,0.632334,0.613535,0.581064,0.553964,0.539559,0.560311,0.616464,0.673106,0.690929,0.65333,0.600839,0.55494,0.558358,0.619394,0.655039,0.623301,0.56495,0.481697,0.390875,0.306889,0.229496,0.180667,0.177737,0.221683,0.290288,0.374029,0.456794,0.545174,0.633799,0.691661,0.671641,0.526131,0.376715,0.350835,0.392096,0.399664,0.402106,0.416022,0.414069,0.375738,0.331304,0.298344,0.273686,0.28809,0.357671,0.486091,0.588144,0.660166,0.710948,0.731456,0.715831,0.656504,0.600839,0.546151,0.487556,0.430182,0.432624,0.5149,0.566903,0.561776,0.540536,0.539559,0.542245,0.531746,0.496101,0.37818,0.213382,0.0815442,0.0407721,0.049073,0.0849622,0.16553,0.292729,0.44239,0.538827,0.567391,0.574472,0.594247,0.617441,0.644297,0.654551,0.624521,0.571298,0.521736,0.47657,0.452644,0.44361,0.464607,0.501472,0.544686,0.589853,0.66041,0.712657,0.720714,0.664561,0.614755,0.55494,0.507576,0.460212,0.41236,0.389899,0.362554,0.336919,0.28394,0.275883,0.334722,0.392584,0.398932,0.366217,0.358404,0.420905,0.489754,0.516854,0.49781,0.453132,0.384527,0.305669,0.230716,0.188479,0.205325,0.277592,0.358648,0.430182,0.509773,0.594736,0.660899,0.693126,0.686534,0.663828,0.637705,0.590097,0.562264,0.574228,0.610117,0.624765,0.604257,0.558114,0.524422,0.531502,0.579599,0.60914,0.54786,0.45069,0.398688,0.397955,0.407477,0.39527,0.356695,0.32398,0.302251,0.313725,0.345953,0.380133,0.399664,0.440192,0.481697,0.490486,0.469734,0.438483,0.433845,0.432136,0.49659,0.57789,0.632822,0.621592,0.596933,0.570077,0.561532,0.528573,0.478035,0.451179,0.419928,0.376959,0.348638,0.363287,0.425788,0.480232,0.471443,0.363531,0.253666,0.240238,0.329595,0.416999,0.471199,0.489509,0.49659,0.515877,0.535409,0.537362,0.525643,0.532235,0.534188,0.507088,0.484627,0.449226,0.442634,0.531014,0.629404,0.649912,0.594491,0.531991,0.442634,0.339605,0.298589,0.299565,0.316655,0.348882,0.38819,0.420172,0.437263,0.445319,0.416999,0.350347,0.316411,0.370123,0.485847,0.611093,0.70045,0.780041,0.810559,0.751232,0.662852,0.596445,0.550301,0.498787,0.451667,0.409918,0.339117,0.25977,0.223148,0.258305,0.318608,0.373785,0.396002,0.418219,0.493416,0.537118,0.508797,0.419684,0.383062,0.428717,0.504402,0.567636,0.630381,0.656504,0.623301,0.587167,0.563729,0.492439,0.403571,0.366949,0.375982,0.410895,0.467536,0.581308,0.690929,0.744884,0.746349,0.726818,0.659434,0.531991,0.399908,0.313481,0.267826,0.240238,0.231937,0.246342,0.242191,0.236332,0.283452,0.349615,0.380133,0.373297,0.35938,0.355962,0.368658,0.38819,0.463142,0.614267,0.729747,0.769543,0.746349,0.698741,0.613291,0.486824,0.357916,0.251225,0.173342,0.18677,0.287358,0.423835,0.524178,0.577401,0.58912,0.601816,0.622812,0.621592,0.638682,0.666758,0.65333,0.590097,0.521248,0.482429,0.485847,0.495613,0.492683,0.425055,0.329595,0.281743,0.305425,0.360601,0.435309,0.487556,0.499275,0.478035,0.42652,0.359136,0.321782,0.284428,0.262943,0.29102,0.372564,0.467048,0.526619,0.531991,0.524666,0.552743,0.587167,0.621836,0.63917,0.637949,0.62916,0.628916,0.642832,0.658946,0.691905,0.709972,0.669444,0.5879,0.538582,0.521248,0.485603,0.401862,0.344976,0.346441,0.379156,0.409918,0.447761,0.494636,0.523201,0.54078,0.571786,0.593759,0.546151,0.415778,0.277348,0.137209,0.000488289,0,0.0656748,0.153079,0.166262,0.191653,0.261967,0.338628,0.39649,0.459236,0.536629,0.605234,0.657969,0.688731,0.718517,0.755627,0.802991,0.84303,0.834241,0.757336,0.634043,0.512947,0.426764,0.387701,0.40235,0.45069,0.44947,0.407721,0.403571,0.423835,0.433845,0.427008,0.428473,0.445075,0.474617,0.478279,0.441657,0.381109,0.346685,0.364752,0.396246,0.402106,0.380377,0.371344,0.435554,0.543709,0.645762,0.720226,0.718517,0.656992,0.589609,0.500984,0.417487,0.425299,0.465827,0.504158,0.599863,0.694102,0.764904,0.754162,0.659678,0.479011,0.294926,0.180179,0.142824,0.123049,0.0722667,0.0173342,0.0451667,0.168948,0.306889,0.407477,0.480232,0.537118,0.607187,0.636728,0.618662,0.598886,0.575448,0.503914,0.398932,0.307866,0.297612,0.356451,0.42945,0.539315,0.639658,0.666514,0.610849,0.507332,0.410895,0.360845,0.35523,0.363775,0.36817,0.384771,0.383551,
0.461189,0.488045,0.533944,0.571298,0.559091,0.51075,0.472908,0.485847,0.511971,0.522713,0.538338,0.562997,0.581796,0.578134,0.556649,0.534188,0.531258,0.534432,0.532967,0.525643,0.537118,0.583261,0.62208,0.659434,0.670909,0.615,0.523934,0.433112,0.339117,0.239994,0.124025,0.0183108,0.000244144,0.0781262,0.200443,0.275151,0.290288,0.299077,0.351812,0.438727,0.529793,0.59913,0.638193,0.659678,0.675059,0.694102,0.69337,0.675547,0.666514,0.646738,0.614023,0.569345,0.517586,0.487068,0.486336,0.513436,0.55079,0.574472,0.573739,0.542,0.510262,0.523201,0.537606,0.505623,0.471931,0.432624,0.368902,0.296147,0.233402,0.185794,0.188235,0.246342,0.322271,0.356451,0.346685,0.336431,0.329839,0.356451,0.451179,0.592538,0.708263,0.749767,0.751965,0.738293,0.720226,0.719005,0.748791,0.768811,0.695323,0.54786,0.476326,0.471687,0.469245,0.441657,0.416266,0.391363,0.340581,0.260746,0.194339,0.14258,0.164309,0.22974,0.304448,0.390143,0.397223,0.36524,0.364996,0.384771,0.359136,0.320806,0.297856,0.307866,0.369635,0.459724,0.535409,0.585946,0.616709,0.628672,0.615488,0.625498,0.714366,0.769299,0.728771,0.664805,0.604257,0.53785,0.445563,0.34815,0.240726,0.199466,0.296147,0.427497,0.521492,0.552499,0.527596,0.481209,0.466804,0.474617,0.516854,0.570565,0.586191,0.56788,0.569345,0.593271,0.644541,0.656748,0.594247,0.421393,0.268803,0.195804,0.160159,0.14551,0.160891,0.205081,0.279301,0.336919,0.361578,0.396246,0.4336,0.465827,0.50367,0.546639,0.601816,0.665537,0.713146,0.68629,0.58912,0.488045,0.447028,0.465339,0.474128,0.469734,0.462654,0.456306,0.451911,0.469734,0.510994,0.553719,0.55201,0.552255,0.566659,0.570565,0.54493,0.484627,0.42237,0.408453,0.386969,0.370123,0.357916,0.340093,0.333013,0.347417,0.380377,0.415778,0.437751,0.457282,0.468757,0.480476,0.500496,0.527108,0.552743,0.577401,0.605722,0.630625,0.645029,0.653574,0.663828,0.687266,0.713878,0.737804,0.759045,0.749035,0.680919,0.564218,0.445808,0.340093,0.292973,0.272953,0.25684,0.247807,0.265629,0.289067,0.30396,0.309819,0.285405,0.244877,0.238529,0.26685,0.334234,0.405768,0.423102,0.368414,0.312505,0.326177,0.394537,0.459968,0.50367,0.51368,0.526864,0.546883,0.553964,0.540536,0.521736,0.529549,0.547127,0.570321,0.615976,0.658946,0.681163,0.687022,0.704356,0.721202,0.721447,0.684825,0.590341,0.463142,0.38233,0.347173,0.354986,0.358404,0.339117,0.353033,0.41236,0.465339,0.4878,0.488533,0.481453,0.442145,0.403082,0.386236,0.346929,0.291997,0.250736,0.228031,0.22266,0.287846,0.402106,0.524666,0.590829,0.621592,0.602792,0.553719,0.491463,0.446784,0.42652,0.444831,0.521492,0.641123,0.778088,0.867689,0.894545,0.89015,0.844739,0.743175,0.544442,0.311284,0.174075,0.0996109,0.0688487,0.062501,0.0695811,0.0837415,0.106935,0.173342,0.284184,0.388678,0.459968,0.507332,0.54493,0.552987,0.551766,0.546639,0.537118,0.508309,0.474861,0.465827,0.470466,0.474861,0.493416,0.530037,0.576669,0.617197,0.652354,0.668223,0.655283,0.637217,0.619883,0.583261,0.542,0.553231,0.607675,0.687999,0.752941,0.778088,0.760266,0.702892,0.570077,0.399664,0.274907,0.212161,0.207767,0.209476,0.174807,0.15259,0.192874,0.272709,0.313481,0.303471,0.30518,0.353765,0.401373,0.452399,0.490974,0.492683,0.45948,0.457527,0.495125,0.482185,0.381109,0.257816,0.156985,0.149905,0.280522,0.436286,0.548348,0.618418,0.668467,0.655772,0.605966,0.587167,0.617929,0.662852,0.678477,0.675303,0.61915,0.541268,0.51368,0.5149,0.536385,0.601083,0.679698,0.718273,0.715831,0.679454,0.616709,0.525399,0.411627,0.292241,0.201419,0.169192,0.208499,0.286625,0.354498,0.373053,0.373785,0.369146,0.35938,0.366949,0.384527,0.401862,0.426276,0.442878,0.457038,0.49366,0.550546,0.587167,0.596933,0.602548,0.572763,0.536873,0.571542,0.677501,0.740002,0.688487,0.625254,0.618418,0.596201,0.497078,0.348394,0.26685,0.290288,0.299321,0.276127,0.240726,0.247807,0.319097,0.376959,0.369879,0.319585,0.287358,0.297124,0.361334,0.452888,0.530282,0.565194,0.564462,0.526619,0.488289,0.485847,0.502937,0.551522,0.65333,0.792004,0.857923,0.850111,0.780285,0.671885,0.561288,0.45069,0.337407,0.226078,0.169192,0.198001,0.282475,0.393072,0.489509,0.536385,0.566415,0.591806,0.580575,0.529061,0.465339,0.395026,0.376715,0.438239,0.511238,0.556893,0.551034,0.509041,0.477546,0.44947,0.405035,0.336675,0.293706,0.299321,0.295659,0.271489,0.251957,0.22681,0.251713,0.345953,0.455329,0.535653,0.581064,0.615732,0.652354,0.670176,0.65919,0.660655,0.677256,0.68751,0.689708,0.681407,0.681163,0.667247,0.642344,0.609873,0.587167,0.509773,0.384771,0.241947,0.155276,0.144533,0.194583,0.208011,0.210208,0.199222,0.17969,0.206302,0.260746,0.348882,0.466072,0.543221,0.585458,0.609384,0.624765,0.598154,0.510994,0.405035,0.343267,0.353277,0.439704,0.552743,0.636973,0.689952,0.689708,0.636484,0.56495,0.489754,0.455085,0.444587,0.432868,0.431647,0.468025,0.536629,0.571786,0.583749,0.566903,0.547372,0.534676,0.559091,0.550301,0.489754,0.430671,0.407965,0.428717,0.453864,0.448737,0.385016,0.284672,0.218509,0.212406,0.265385,0.334722,0.383062,0.413581,0.448249,0.478523,0.504646,0.532235,0.545418,0.553964,0.566659,0.582284,0.578622,0.578134,0.590585,0.627451,0.666514,0.657725,0.586435,0.489754,0.390143,0.347417,0.366217,0.414069,0.435065,0.433845,0.457282,0.51368,0.563485,0.587655,0.585702,0.601328,0.60914,0.571054,0.502937,0.42237,0.342779,0.263188,0.222416,0.26392,0.368658,0.449714,0.490974,0.516609,0.533944,0.568856,0.576181,0.579599,0.583261,0.553475,0.501472,0.425788,0.328374,0.256596,0.236332,0.281987,0.334478,0.355718,0.380133,0.449714,0.570321,0.685069,0.729015,0.66627,0.549325,0.435554,0.37818,0.352544,0.346685,0.339605,0.336919,0.384039,0.464118,0.54493,0.596445,0.594491,0.539071,0.486091,0.471443,0.463386,0.460945,0.448981,0.444099,0.448249,0.447761,0.424079,0.357427,0.298344,0.272953,0.264652,0.264164,0.344732,0.433845,0.485603,0.519539,0.546151,0.571542,0.585946,0.57911,0.554696,0.532723,0.541024,0.587167,0.663096,0.723644,0.776135,0.823255,0.833265,0.798108,0.720958,0.600351,0.496101,0.440192,0.406989,0.381109,0.385748,0.404303,0.360357,0.253422,0.182864,0.14844,0.127687,0.140627,0.202396,0.29688,0.372076,0.421637,0.487556,0.535164,0.568612,0.587167,0.5608,0.516854,0.472908,0.416999,0.377447,0.386236,0.406989,0.407477,0.413336,0.467048,0.51075,0.482673,0.433845,0.387213,0.369635,0.403815,0.482429,0.583261,0.652842,0.711437,0.773693,0.81593,0.808362,0.721202,0.573251,0.416022,0.326177,0.292241,0.272709,0.23267,0.238773,0.301518,0.332036,0.309819,0.303716,0.327398,0.3794,0.431403,0.444587,0.457527,0.496834,0.54493,0.620615,0.675792,0.701671,0.714122,0.699229,0.680919,0.607919,0.489265,0.362554,0.283452,0.299565,0.37232,0.44361,0.485847,0.528084,0.554696,0.580087,0.594247,0.57496,0.515877,0.470222,0.467781,0.488533,0.525154,0.587167,0.652598,0.674083,0.646738,0.575692,0.448981,0.310796,0.205325,0.139406,0.116213,0.110597,0.140627,0.218509,0.294926,0.359869,0.416999,0.454353,0.481209,0.480232,0.467781,0.45948,0.458259,0.457527,0.485359,0.542,0.62501,0.691417,0.717052,0.698985,0.673594,0.674083,0.70045,0.701183,0.678233,0.65211,0.634531,0.623789,0.610361,0.568612,0.478523,0.353521,0.246342,0.16846,0.12549,0.141848,0.238529,0.33814,0.401862,0.429694,0.418708,0.394537,0.394049,0.43653,0.476081,0.488289,0.444099,0.380133,0.346441,0.334234,0.335698,0.330816,0.336431,0.379889,0.47779,0.597421,0.688731,0.745617,0.787854,0.807141,0.782238,0.699229,0.594247,0.542733,0.516609,0.503914,0.485847,0.451179,0.389899,0.36817,0.36524,0.347662,0.336187,0.346685,0.384039,0.431891,0.444099,0.446296,0.49781,0.550057,0.546151,0.462165,0.32398,0.205325,0.173342,0.208255,0.232425,0.218753,0.222904,0.289799,0.423346,0.513924,0.526864,0.50367,0.502449,0.532479,0.5608,0.570321,0.571298,0.590585,0.621347,0.640391,0.639414,0.635264,0.636973,0.620127,0.594247,0.583993,0.591562,0.614267,0.62501,0.620371,0.61915,0.640146,0.677012,0.708751,0.700206,0.628672,0.494148,0.353033,0.25391,0.187259,0.150637,0.179446,0.232425,0.281254,0.330083,0.371832,0.38819,0.407233,0.405035,0.401129,0.453132,0.535897,0.58204,0.567636,0.522713,0.474617,0.437018,0.410895,0.4065,0.453376,0.512459,0.571786,0.635752,0.692149,0.651377,0.573983,0.492927,0.410163,0.372808,0.370367,0.357671,0.324468,0.310796,0.301762,0.3252,0.394537,0.487312,0.561776,0.599619,0.595468,0.594491,0.610605,0.587167,0.491951,0.388922,0.302007,0.219974,0.18677,0.204349,0.256107,0.286381,0.247074,0.202884,0.234623,0.309819,0.389654,0.451179,0.510262,0.535653,0.550057,0.606455,0.683116,0.735119,0.745129,0.721202,0.711681,0.779797,0.85597,0.895033,0.9131,0.886732,0.805188,0.691417,0.571298,0.421149,0.2981,0.208255,0.172366,0.176516,0.184817,0.187259,0.197269,0.204349,0.193851,0.185061,0.21265,0.269047,0.359136,0.472175,0.542,0.56202,0.55787,0.531746,0.492927,0.460456,0.443854,0.491218,0.580331,0.641367,0.666514,0.701915,0.73341,0.743664,0.708507,0.625742,0.568856,0.559823,0.577401,0.561776,0.492439,0.398199,0.335454,0.279789,0.267826,0.275395,0.256107,0.199954,0.156252,0.15967,0.252201,0.378668,0.477546,0.566903,0.65919,0.74342,0.760754,0.707774,0.60914,0.527352,0.454841,0.375982,0.323491,0.326421,0.355718,0.415045,0.448493,0.469001,0.497566,0.509773,0.45948,0.379156,0.38233,0.457038,0.508064,
