0.495857,0.492195,0.48658,0.479744,0.471931,0.466072,0.4607,0.459236,0.461433,0.465339,0.466072,0.467781,0.47071,0.475837,0.475593,0.464363,0.458259,0.453864,0.445075,0.427008,0.413825,0.412604,0.419928,0.435065,0.449714,0.45362,0.447272,0.450202,0.461677,0.476814,0.492439,0.504891,0.515633,0.529549,0.535653,0.536385,0.535409,0.533944,0.530526,0.523445,0.51075,0.498054,0.482429,0.468757,0.451179,0.420905,0.390631,0.385504,0.400885,0.417487,0.425299,0.424079,0.425299,0.431403,0.443366,0.452155,0.455573,0.457282,0.459236,0.461921,0.468025,0.474617,0.4795,0.481697,0.485847,0.490242,0.502205,0.508064,0.50782,0.507332,0.51075,0.519295,0.525399,0.523445,0.512459,0.501717,0.503914,0.503182,0.47779,0.447028,0.427497,0.416754,0.41529,0.425544,0.441657,0.462654,0.476326,0.473152,0.457771,0.44361,0.437751,0.437751,0.439948,0.445808,0.452399,0.456794,0.457038,0.455085,0.454597,0.454597,0.456794,0.461189,0.469245,0.47657,0.48072,0.481697,0.482429,0.487068,0.489998,0.492195,0.492439,0.495369,0.503182,0.506844,0.51075,0.511727,0.510018,0.511238,0.510994,0.51075,0.503914,0.492195,0.47657,0.458015,0.440192,0.433845,0.43946,0.447517,0.454353,0.458991,0.459724,0.455573,0.448981,0.438483,0.435309,0.435554,0.434089,0.427985,0.425788,0.425788,0.42945,0.435798,0.440436,0.447517,0.458503,0.467048,0.476326,0.484871,0.496834,0.502205,0.504158,0.507332,0.511482,0.515877,0.517342,0.517342,0.514168,0.521492,0.534432,0.538094,0.520027,0.487068,0.456306,0.442145,0.442878,0.445319,0.450446,0.45948,0.461921,0.458991,0.452888,0.444587,0.437995,0.436774,0.433845,0.428717,0.410407,0.390875,0.39234,0.416022,0.445563,0.471199,0.484382,0.48072,0.470222,0.452644,0.439216,0.444343,0.461921,0.485847,0.503914,0.521981,0.543221,0.553964,0.554696,0.541024,0.514412,0.477546,0.454353,0.454841,0.473396,0.490486,0.499519,0.498054,0.491707,0.481453,0.469001,0.456062,0.449714,0.44654,0.447028,0.448005,0.448737,0.448005,0.448249,0.448493,0.445319,0.440681,0.439216,0.442634,0.449226,0.458259,0.463874,0.461433,0.454597,0.453376,0.455085,0.458015,0.463874,0.472175,0.478767,0.479988,0.481941,0.48658,0.495125,0.504646,0.510262,0.515633,0.519051,0.519295,0.51368,0.51075,0.509285,0.514656,0.519295,0.519539,0.515633,0.510018,0.505623,0.508797,0.492439,0.479744,0.47779,0.441657,0.369635,0.312993,0.305669,0.331548,0.356695,0.37232,0.383795,0.389899,0.401617,0.422126,0.450202,0.471931,0.486824,0.496834,0.503182,0.507332,0.51075,0.5149,0.517586,0.518807,0.520027,0.518807,0.517342,0.515877,0.516121,0.519051,0.516609,0.504646,0.4878,0.474617,0.471199,0.475837,0.478767,0.479744,0.479011,0.477058,0.473884,0.465095,0.458991,0.453132,0.447517,0.44361,0.43946,0.433845,0.431647,0.431403,0.432868,0.437263,0.444099,0.454353,0.468025,0.477546,0.48365,0.489509,0.491951,0.490486,0.484627,0.480232,0.475349,0.472175,0.475105,0.481453,0.485603,0.493904,0.501961,0.512947,0.512947,0.507332,0.500496,0.491707,0.482185,0.473152,0.466316,0.455329,0.447272,0.448981,0.456062,0.460456,0.456794,0.451423,0.440925,0.426764,0.418952,0.419928,0.425299,0.435065,0.441169,0.44654,0.448981,0.45362,0.463142,0.468025,0.472663,0.481941,0.489265,0.484382,0.470466,0.458991,0.458991,0.467048,0.477302,0.485847,0.492439,0.497078,0.503182,0.505379,0.504158,0.502693,0.509285,0.516121,0.519295,0.522957,0.52369,0.524666,0.520027,0.510994,0.499763,0.485603,0.475837,0.464363,0.437018,0.391363,0.354742,0.349615,0.368902,0.394537,0.416022,0.437018,0.448493,0.452155,0.453376,0.452888,0.452155,0.451423,0.458259,0.469245,0.481453,0.48658,0.486336,0.486336,0.489509,0.496834,0.502449,0.503914,0.50367,0.5066,0.503426,0.497078,0.495857,0.501472,0.502937,0.495613,0.485603,0.482185,0.484382,0.4795,0.471443,0.472175,0.469978,0.467048,0.474617,0.49366,0.499763,0.487312,0.471687,0.464118,0.448249,0.417975,0.394537,0.393072,0.403815,0.407965,0.408209,0.410651,0.420905,0.430671,0.443366,0.459236,0.470222,0.474861,0.4795,0.4878,0.498054,0.514656,0.529793,0.540047,0.551034,0.557626,0.565194,0.56495,0.555184,0.534432,0.504402,0.475837,0.448737,0.414069,0.380377,0.367926,0.378424,0.407233,0.434821,0.447517,0.452399,0.44947,0.453376,0.463142,0.468025,0.475105,0.479988,0.482429,0.479744,0.472908,0.468513,0.470466,0.484138,0.500252,0.488045,0.453132,0.431159,0.43653,0.457527,0.478767,0.490974,0.492439,0.489265,0.483894,0.471199,0.462165,0.454841,0.452399,0.452399,0.451911,0.452399,0.460945,0.47364,0.485359,0.491463,0.492683,0.490242,0.489509,0.487556,0.483894,0.479744,0.480964,0.4795,0.471443,0.460212,0.44947,0.448249,0.454597,0.462165,0.467536,0.476814,0.493904,0.509773,0.510506,0.497566,0.475105,0.46949,0.481697,0.468025,0.422858,0.387457,0.383062,0.402594,0.432868,0.455329,0.469001,0.48072,0.492439,0.506111,0.514168,0.520272,0.525154,0.52784,0.521248,0.508553,0.498054,0.488777,0.478523,0.464607,0.457282,0.460456,0.462654,0.462409,0.4607,0.457038,0.452888,0.447517,0.442634,0.438483,0.437018,0.438239,0.449714,0.464851,0.474372,0.477058,0.484871,0.501717,0.519295,0.522469,0.512459,0.51075,0.504891,0.491707,0.465339,0.423102,0.379156,0.357427,0.374029,0.404547,0.423835,0.430671,0.437507,0.451423,0.471199,0.492683,0.509041,0.519539,0.520027,0.512947,0.507088,0.502449,0.499275,0.491951,0.484138,0.47657,0.47071,0.466804,0.464118,0.466072,0.47071,0.471931,0.47071,0.46363,0.454597,0.452155,0.453132,0.454353,0.459236,0.464363,0.468269,0.469978,0.467781,0.467292,0.464607,0.459968,0.461921,0.468757,0.473396,0.482918,0.498787,0.519051,0.525887,0.518807,0.503182,0.483894,0.472908,0.474372,0.477058,0.471199,0.464851,0.460212,0.458015,0.457038,0.453132,0.451179,0.449714,0.443122,0.439704,0.435798,0.441169,0.453376,0.465827,0.482673,0.496834,0.502693,0.506111,0.510994,0.51368,0.516854,0.515389,0.500984,0.472908,0.437995,0.400885,0.360845,0.335698,0.344976,0.38233,0.431159,0.473396,0.496834,0.507576,0.512215,0.518318,0.525154,0.529549,0.53077,0.531746,0.528817,0.523934,0.521004,0.516121,0.503914,0.486336,0.465095,0.443366,0.408453,0.375006,0.373297,0.390631,0.412848,0.434089,0.445563,0.448249,0.448493,0.450202,0.454841,0.458015,0.465339,0.472663,0.476326,0.478279,0.477302,0.474617,0.475349,0.482673,0.490974,0.499031,0.50074,0.505379,0.508797,0.511482,0.515145,0.515633,0.511727,0.517098,0.527596,0.5337,0.531502,0.521492,0.499031,0.46949,0.43946,0.416999,0.405035,0.399908,0.403815,0.413825,0.427253,0.443122,0.455329,0.462165,0.465095,0.464118,0.464118,0.463386,0.457527,0.45362,0.455085,0.452644,0.442878,0.435065,0.437507,0.451911,0.469978,0.486091,0.496345,0.499031,0.499763,0.502205,0.49659,0.488533,0.487068,0.49073,0.502205,0.507088,0.508064,0.508064,0.506844,0.502205,0.482673,0.446296,0.417731,0.413092,0.430426,0.452155,0.462654,0.461433,0.453132,0.445808,0.445319,0.445563,0.449226,0.453132,0.461189,0.465827,0.466072,0.462165,0.461433,0.465583,0.468025,0.471931,0.47071,0.465095,0.458503,0.459968,0.465827,0.47364,0.484382,0.498787,0.512459,0.523934,0.529305,0.535653,0.544686,0.546883,0.542245,0.527596,0.504646,0.472419,0.442145,0.418219,0.405035,0.397223,0.403082,0.421393,0.448981,0.475349,0.496834,0.504402,0.499519,0.490974,0.480232,0.470466,0.44361,0.403326,0.388434,0.410895,0.44361,0.449226,0.426276,0.398444,0.385016,0.403082,0.442145,0.472663,0.491463,0.505379,0.511238,0.510262,0.504646,0.499275,0.497566,0.497566,0.489265,0.4795,0.476081,0.478523,0.489998,0.501228,0.508064,0.511482,0.515877,0.52076,0.525887,0.529305,0.525643,0.515633,0.504402,0.487312,0.448493,0.399664,0.375982,0.376471,0.387945,0.398932,0.41236,0.433845,0.45362,0.464363,0.471931,0.475837,0.474617,0.469734,0.468269,0.467048,0.464118,0.455329,0.452399,0.457038,0.465583,0.475593,0.482429,0.485847,0.49073,0.493416,0.495613,0.494148,0.489021,0.484382,0.480476,0.485847,0.492439,0.50074,0.511971,0.519783,0.522713,0.516121,0.506844,0.499763,0.502449,0.497566,0.482673,0.464851,0.437263,0.399664,0.374517,0.37232,0.38941,0.410163,0.42237,0.431159,0.440681,0.444343,0.437018,0.431891,0.437507,0.450202,0.464363,0.478523,0.487068,0.491463,0.494148,0.497322,0.498787,0.500984,0.50074,0.498787,0.498787,0.501228,0.504646,0.509285,0.512459,0.51368,0.515633,0.520027,0.517342,0.51368,0.516121,0.513924,0.504646,0.494392,0.484627,0.472175,0.45069,0.431159,0.409918,0.373785,0.340337,0.333989,0.347173,0.376226,0.408942,0.432624,0.448493,0.464118,0.480964,0.494636,0.498054,0.496345,0.494392,0.490242,0.488289,0.4878,0.489754,0.497322,0.509529,0.515877,0.517342,0.516121,0.516609,0.518807,0.51783,0.517342,0.513191,0.50367,0.492439,0.473152,0.446296,0.428962,0.432136,0.444587,0.459236,0.460212,0.454353,0.447272,0.441413,0.432868,0.419196,0.407721,0.4065,0.41236,0.41651,0.427985,0.443366,0.458991,0.47071,0.481697,0.489021,0.496345,0.502937,0.509041,0.509041,0.508064,0.506355,0.50367,0.500496,0.497322,0.493416,0.492439,0.496345,0.501961,0.497322,0.480232,0.468269,0.466072,0.474372,0.480476,0.481697,0.472663,0.457527,0.448981,0.445808,0.452888,0.465339,0.481209,0.482673,0.4607,0.431647,0.411139,0.400885,0.400885,0.401373,0.409918,0.425544,0.442145,0.455818,0.468025,0.475593,0.480476,0.483894,0.487312,0.492683,0.497078,0.498054,0.498787,0.499275,0.500496,0.502693,0.502449,0.502205,0.500252,0.50074,0.502937,0.503914,0.500984,0.496345,0.491951,
0.489509,0.48365,0.4795,0.47657,0.475105,0.471199,0.468757,0.463874,0.457038,0.451423,0.446784,0.445808,0.444587,0.443366,0.440681,0.443366,0.444099,0.444587,0.444831,0.445319,0.451423,0.464851,0.475105,0.479011,0.478035,0.479744,0.48072,0.48072,0.482429,0.487556,0.493904,0.501961,0.50782,0.510018,0.514168,0.518563,0.522225,0.521004,0.519783,0.51075,0.487312,0.4607,0.437507,0.423835,0.425055,0.436042,0.445808,0.451179,0.452399,0.448981,0.444587,0.438727,0.437751,0.4336,0.434089,0.438483,0.443854,0.447272,0.453132,0.459968,0.465339,0.471199,0.478523,0.482429,0.487556,0.491463,0.498054,0.497566,0.49366,0.496834,0.50782,0.513436,0.49659,0.474128,0.472908,0.486336,0.504891,0.512459,0.511727,0.505623,0.506355,0.504402,0.46656,0.404791,0.372076,0.373297,0.39649,0.423102,0.44239,0.448737,0.441657,0.431891,0.436774,0.455085,0.467048,0.460456,0.449226,0.448493,0.457282,0.470222,0.48365,0.490486,0.499763,0.509773,0.514412,0.513191,0.506355,0.501717,0.490242,0.471443,0.457282,0.453864,0.458259,0.45948,0.462898,0.470954,0.482429,0.49366,0.500252,0.504158,0.501472,0.498787,0.498054,0.493172,0.484138,0.47657,0.475349,0.470954,0.465339,0.460212,0.457282,0.457527,0.45948,0.455329,0.452399,0.449226,0.445563,0.441901,0.44239,0.444099,0.445075,0.44654,0.44947,0.455329,0.462654,0.473884,0.484382,0.48658,0.47779,0.457282,0.44654,0.448981,0.459724,0.474617,0.487068,0.491463,0.491951,0.495369,0.501472,0.508797,0.512459,0.509041,0.505135,0.502693,0.500252,0.495125,0.49073,0.484627,0.475837,0.464363,0.450935,0.440925,0.433845,0.431159,0.431403,0.436774,0.441657,0.438727,0.435798,0.439948,0.445563,0.449226,0.443366,0.435309,0.431891,0.435554,0.44654,0.458991,0.471931,0.482673,0.488533,0.493416,0.49781,0.501717,0.509773,0.522225,0.535409,0.537606,0.525643,0.501717,0.479255,0.473884,0.473884,0.474372,0.47071,0.465827,0.466072,0.464363,0.457038,0.451423,0.448493,0.44361,0.436774,0.432136,0.432868,0.43238,0.431647,0.43238,0.438727,0.447272,0.454353,0.457771,0.458991,0.462409,0.464607,0.468757,0.47364,0.475593,0.478035,0.485115,0.49659,0.503182,0.506355,0.510994,0.512947,0.512703,0.511727,0.511727,0.511727,0.509773,0.508309,0.501228,0.49366,0.488289,0.484871,0.479988,0.46656,0.44947,0.437263,0.435554,0.438972,0.446784,0.455329,0.458747,0.462165,0.470222,0.470954,0.466316,0.468025,0.46949,0.455085,0.430426,0.416022,0.420172,0.424811,0.433112,0.439948,0.432136,0.412116,0.401862,0.412848,0.439948,0.464851,0.479988,0.486336,0.492927,0.510018,0.53077,0.545663,0.552987,0.553475,0.548592,0.538094,0.524666,0.518563,0.518563,0.501228,0.465095,0.428229,0.417243,0.421881,0.421149,0.419196,0.42237,0.430915,0.43653,0.437018,0.437507,0.440925,0.448737,0.456306,0.462654,0.462654,0.461189,0.460945,0.4607,0.461921,0.464607,0.472908,0.479744,0.485603,0.488289,0.492195,0.492683,0.495857,0.497566,0.497322,0.498054,0.496101,0.495125,0.491218,0.485603,0.481453,0.483894,0.489754,0.496834,0.505623,0.510018,0.505623,0.502693,0.502449,0.499031,0.49073,0.481209,0.471931,0.457282,0.433112,0.407965,0.393805,0.396979,0.400153,0.400885,0.404303,0.410407,0.42359,0.438972,0.448493,0.446296,0.441657,0.445808,0.458503,0.473884,0.485603,0.494392,0.49659,0.502693,0.513191,0.519783,0.524178,0.529793,0.533211,0.528084,0.517586,0.507088,0.50782,0.510018,0.504891,0.491218,0.464607,0.437751,0.426032,0.424567,0.427985,0.432624,0.438483,0.439704,0.436774,0.438239,0.441901,0.448005,0.457038,0.464118,0.467048,0.46949,0.470222,0.467536,0.456306,0.450446,0.444587,0.427985,0.407721,0.410651,0.433845,0.467781,0.500252,0.522713,0.545174,0.558846,0.556893,0.546883,0.540291,0.539559,0.536629,0.53077,0.505867,0.47071,0.44654,0.435554,0.42359,0.410407,0.401862,0.407721,0.422858,0.44361,0.459724,0.475105,0.484871,0.487556,0.489265,0.488533,0.48658,0.484627,0.475837,0.460456,0.434089,0.406256,0.39527,0.397711,0.411139,0.430182,0.445075,0.451423,0.449714,0.454597,0.465583,0.482673,0.490974,0.491463,0.494392,0.499275,0.504891,0.509529,0.514656,0.516121,0.51368,0.507576,0.503182,0.500008,0.496101,0.49366,0.493172,0.492195,0.49073,0.488045,0.48072,0.469001,0.459724,0.453376,0.447761,0.440925,0.436286,0.437018,0.438972,0.442145,0.448981,0.456062,0.461189,0.465339,0.465339,0.463874,0.462409,0.46656,0.463874,0.448249,0.431647,0.426032,0.435554,0.451911,0.470466,0.483894,0.495125,0.510262,0.524666,0.533211,0.535653,0.536629,0.530282,0.52491,0.52491,0.512703,0.475105,0.444831,0.431159,0.430182,0.430915,0.426276,0.421393,0.423835,0.431891,0.439704,0.440436,0.434577,0.431891,0.432624,0.438972,0.454353,0.470466,0.475105,0.472908,0.472908,0.475349,0.475349,0.473396,0.472908,0.476081,0.484627,0.496345,0.503914,0.480232,0.449226,0.444099,0.455085,0.477546,0.497078,0.51368,0.525399,0.535164,0.542733,0.549813,0.538094,0.515877,0.487312,0.473884,0.468513,0.45069,0.425544,0.413825,0.408942,0.412116,0.41944,0.428717,0.435065,0.437751,0.441169,0.445808,0.449226,0.447517,0.448737,0.456062,0.466804,0.478035,0.485359,0.487068,0.490486,0.489265,0.472175,0.457038,0.44654,0.447028,0.456306,0.47071,0.479255,0.48658,0.494881,0.505623,0.511238,0.516121,0.525154,0.519539,0.488289,0.465339,0.4607,0.469001,0.476081,0.474372,0.467781,0.459236,0.45069,0.441901,0.43946,0.441901,0.44947,0.455573,0.459724,0.460212,0.4607,0.460456,0.456062,0.453864,0.462165,0.470466,0.463874,0.452644,0.445075,0.454841,0.46656,0.474617,0.481453,0.488289,0.492439,0.489021,0.49073,0.496834,0.501228,0.501228,0.493172,0.478767,0.475593,0.482429,0.493416,0.499763,0.504158,0.502937,0.500496,0.495857,0.49073,0.488777,0.484627,0.48072,0.471199,0.456794,0.438727,0.426276,0.430182,0.434821,0.421881,0.403815,0.392828,0.394781,0.404303,0.415045,0.427008,0.437018,0.447761,0.459724,0.474128,0.483894,0.491707,0.503914,0.508064,0.503914,0.5066,0.509285,0.516365,0.52369,0.53077,0.538827,0.544442,0.545174,0.537362,0.528817,0.52784,0.51783,0.482918,0.44654,0.419196,0.416266,0.424323,0.41529,0.398199,0.391852,0.406989,0.422858,0.434577,0.438972,0.440925,0.441169,0.439948,0.43946,0.443854,0.452888,0.4607,0.466804,0.475593,0.479988,0.481697,0.488533,0.492439,0.495125,0.490974,0.485603,0.489021,0.494148,0.502693,0.498787,0.478035,0.455329,0.444099,0.449714,0.465095,0.481697,0.49366,0.50367,0.514168,0.512947,0.502205,0.484871,0.479988,0.481453,0.475593,0.463386,0.449958,0.441901,0.439948,0.437751,0.426764,0.424323,0.437263,0.461189,0.48072,0.490242,0.488045,0.476814,0.464607,0.457771,0.456306,0.452888,0.448005,0.435065,0.428717,0.433112,0.447761,0.46656,0.478523,0.490486,0.496101,0.503182,0.511971,0.519295,0.530037,0.532479,0.52784,0.513436,0.497566,0.48072,0.463874,0.446052,0.441413,0.450446,0.462165,0.466072,0.464118,0.458259,0.460212,0.459236,0.454108,0.449226,0.448005,0.449714,0.451667,0.449226,0.454597,0.474617,0.488533,0.494392,0.511971,0.51783,0.50367,0.499275,0.510262,0.52369,0.528328,0.515633,0.457527,0.372564,0.317632,0.30811,0.337407,0.383795,0.425299,0.458747,0.481453,0.494392,0.502449,0.505135,0.504646,0.505135,0.50782,0.509285,0.509529,0.511727,0.513436,0.511971,0.506111,0.500252,0.491707,0.478523,0.467048,0.460945,0.454597,0.445319,0.424079,0.405035,0.400885,0.406989,0.417975,0.430671,0.439216,0.449226,0.464607,0.482429,0.498299,0.50782,0.511971,0.508797,0.499275,0.488533,0.46949,0.448493,0.447517,0.463142,0.482918,0.500008,0.508064,0.511238,0.509285,0.506111,0.501472,0.492927,0.480476,0.468757,0.467292,0.471687,0.478523,0.48072,0.480964,0.473884,0.464363,0.456062,0.447028,0.440192,0.435798,0.433356,0.433356,0.433112,0.434821,0.447028,0.467292,0.485115,0.497566,0.504158,0.504158,0.499275,0.486824,0.478767,0.480232,0.472419,0.447028,0.417487,0.413581,0.441413,0.466316,0.476326,0.476814,0.475593,0.479255,0.486091,0.491218,0.493416,0.49366,0.491218,0.48658,0.481453,0.478523,0.483162,0.484871,0.482429,0.476081,0.47071,0.469978,0.468513,0.4607,0.451423,0.446784,0.451911,0.448249,0.424811,0.40528,0.403815,0.417243,0.438972,0.45948,0.475349,0.484871,0.489021,0.49366,0.497566,0.499519,0.500496,0.500252,0.501472,0.502937,0.49659,0.484871,0.48072,0.48658,0.494392,0.497566,0.493904,0.484871,0.475349,0.463386,0.452399,0.449958,0.452888,0.454597,0.448981,0.442145,0.434333,0.434577,0.438483,0.44361,0.449714,0.459236,0.468757,0.477302,0.484627,0.479988,0.483162,0.501717,0.516365,0.509529,0.473396,0.426276,0.399176,0.40235,0.426032,0.454108,0.473884,0.48658,0.495857,0.499763,0.50367,0.50074,0.499275,0.506111,0.513924,0.515633,0.508797,0.499519,0.4878,0.477546,0.470466,0.463874,0.458991,0.449226,0.439948,0.434333,0.438239,0.445808,0.455329,0.465827,0.47071,0.46949,0.472908,0.479988,0.486336,0.485847,0.479988,0.471687,0.459724,0.452644,0.445808,0.428229,0.401617,0.379889,0.382574,0.407965,0.44361,0.474128,0.498054,0.511971,0.515877,0.514412,0.5066,0.492927,0.478767,0.47779,0.486091,0.495613,0.498787,0.495857,0.494881,0.494636,0.494636,0.495369,0.49366,0.489265,0.48072,0.479744,0.480232,0.473396,0.458747,0.446052,0.44239,0.445808,0.445563,0.440192,0.428962,0.41944,0.420172,0.432868,0.445563,0.458015,0.469734,0.472419,0.476814,0.482918,0.486824,0.486336,0.48072,0.472419,0.469245,0.474617,0.483894,0.488533,0.494636,0.500008,0.505623,0.510506,0.51075,0.504158,0.497322,0.497566,
0.494148,0.485603,0.474617,0.467536,0.463874,0.460212,0.455329,0.452399,0.449226,0.447517,0.452155,0.455329,0.454841,0.447761,0.438727,0.432868,0.428473,0.431159,0.439216,0.445319,0.453376,0.461921,0.469978,0.47364,0.474372,0.471687,0.471931,0.472419,0.478523,0.492683,0.512703,0.527352,0.534188,0.542977,0.555917,0.566659,0.563485,0.553231,0.535653,0.517098,0.499763,0.471687,0.424567,0.381353,0.363287,0.368658,0.380621,0.385748,0.392096,0.404547,0.419928,0.433112,0.436774,0.437018,0.437751,0.445563,0.457038,0.462165,0.463142,0.466072,0.47657,0.484138,0.492683,0.510994,0.514656,0.49781,0.484627,0.490974,0.499519,0.496345,0.4878,0.489509,0.499275,0.508797,0.512459,0.515877,0.515877,0.509041,0.505135,0.501717,0.499031,0.49781,0.494148,0.478523,0.452888,0.429938,0.419196,0.415778,0.417731,0.421881,0.424079,0.42945,0.438239,0.443366,0.447517,0.448493,0.448005,0.444099,0.440681,0.437507,0.435798,0.438727,0.446296,0.461189,0.474372,0.490242,0.5149,0.543465,0.56788,0.584726,0.597177,0.601328,0.584726,0.547127,0.511482,0.478523,0.445319,0.404547,0.344732,0.302983,0.310796,0.361822,0.421637,0.463874,0.479988,0.483406,0.48365,0.484382,0.480964,0.469734,0.459236,0.44947,0.451179,0.457038,0.45948,0.461677,0.467048,0.472908,0.473884,0.473884,0.478035,0.481941,0.486336,0.486336,0.488777,0.492927,0.492195,0.481697,0.476326,0.479255,0.482429,0.48365,0.47657,0.466804,0.462165,0.457771,0.456306,0.463142,0.472908,0.48072,0.488533,0.498054,0.500496,0.500008,0.499519,0.498543,0.502449,0.50782,0.502693,0.484627,0.465095,0.443366,0.418219,0.404303,0.408942,0.417975,0.426032,0.434089,0.437018,0.440192,0.444099,0.445808,0.445563,0.449226,0.452644,0.458259,0.469245,0.479011,0.487312,0.494636,0.508797,0.518807,0.517586,0.5066,0.491218,0.471931,0.465583,0.475837,0.498543,0.525399,0.549813,0.570321,0.583505,0.58497,0.563485,0.539315,0.533211,0.519783,0.465827,0.386969,0.312749,0.269291,0.277348,0.317876,0.364019,0.395026,0.412116,0.424567,0.432624,0.442634,0.456794,0.470222,0.47779,0.483894,0.489509,0.489265,0.488777,0.491463,0.490486,0.486091,0.479744,0.478767,0.479255,0.482185,0.488289,0.494148,0.502205,0.510018,0.5149,0.519783,0.521736,0.522713,0.522713,0.516854,0.504402,0.494881,0.487312,0.4795,0.474617,0.470466,0.459236,0.447272,0.439948,0.436286,0.432136,0.429694,0.431647,0.431403,0.431647,0.432624,0.435554,0.43653,0.447028,0.462409,0.46656,0.465095,0.463874,0.464118,0.467781,0.472419,0.474861,0.475837,0.482918,0.489754,0.496345,0.501717,0.505135,0.509529,0.515877,0.517342,0.512459,0.504646,0.494636,0.489998,0.486824,0.478279,0.468269,0.458991,0.456062,0.457771,0.458015,0.452888,0.448493,0.44361,0.450935,0.46363,0.474617,0.49073,0.498543,0.499031,0.495613,0.493416,0.489754,0.46656,0.421637,0.37232,0.34815,0.353765,0.37818,0.401617,0.422126,0.445319,0.461433,0.468269,0.480964,0.498543,0.515633,0.523934,0.521736,0.522225,0.529793,0.52076,0.50782,0.517342,0.530526,0.527596,0.50782,0.492927,0.487312,0.485603,0.475837,0.44361,0.416266,0.417243,0.429206,0.445319,0.455329,0.458991,0.458259,0.444587,0.435798,0.432624,0.427985,0.41529,0.397467,0.387945,0.401129,0.429938,0.462409,0.481941,0.489509,0.487556,0.484871,0.485603,0.494392,0.503914,0.508797,0.510506,0.510018,0.509773,0.509529,0.509041,0.509041,0.509041,0.508797,0.504646,0.496834,0.49073,0.488533,0.4878,0.486336,0.482673,0.481453,0.478523,0.473884,0.461189,0.451179,0.453376,0.456062,0.453132,0.447761,0.445075,0.439704,0.437018,0.434089,0.427008,0.421149,0.429938,0.445319,0.455085,0.460945,0.46656,0.471199,0.47071,0.467781,0.467781,0.469001,0.474372,0.482429,0.489509,0.494392,0.499031,0.500496,0.501472,0.500984,0.499275,0.498299,0.501472,0.505135,0.504891,0.496101,0.483162,0.469734,0.461189,0.452888,0.447761,0.450202,0.457527,0.460212,0.464118,0.46949,0.475105,0.483162,0.495857,0.499763,0.49659,0.487312,0.462654,0.429694,0.411872,0.404547,0.394049,0.383795,0.381842,0.396246,0.423102,0.454353,0.483162,0.504158,0.516609,0.524178,0.532479,0.538582,0.537118,0.526619,0.513436,0.498299,0.490242,0.479744,0.453376,0.422858,0.41529,0.425788,0.447272,0.46949,0.488045,0.495613,0.493416,0.489754,0.48658,0.489998,0.488045,0.4607,0.418219,0.388922,0.385748,0.395758,0.411383,0.427008,0.444343,0.458015,0.462654,0.463142,0.469001,0.477546,0.486824,0.495857,0.510994,0.517586,0.515145,0.509773,0.504402,0.495369,0.48658,0.481209,0.483406,0.491463,0.490974,0.482429,0.482918,0.491707,0.494881,0.489509,0.49366,0.499275,0.485847,0.461189,0.445319,0.441657,0.447761,0.454108,0.451911,0.446296,0.442878,0.44361,0.443854,0.449226,0.464607,0.481697,0.494636,0.502449,0.50074,0.495125,0.498543,0.504646,0.497078,0.470954,0.439704,0.40235,0.371099,0.361578,0.386969,0.429206,0.468513,0.49659,0.508553,0.503914,0.494392,0.4878,0.491218,0.504402,0.516854,0.523445,0.521004,0.511971,0.503426,0.494881,0.494392,0.491707,0.472663,0.447517,0.436286,0.436286,0.440436,0.435554,0.427985,0.406744,0.381353,0.381109,0.398444,0.422614,0.444831,0.461921,0.471931,0.48072,0.488045,0.491951,0.495369,0.501472,0.515877,0.519783,0.510018,0.495125,0.4795,0.473152,0.478767,0.488289,0.488045,0.478523,0.474128,0.478523,0.487312,0.493416,0.494636,0.49366,0.488533,0.488289,0.49366,0.494881,0.49073,0.484627,0.481453,0.477058,0.471443,0.465095,0.451179,0.439704,0.432136,0.427741,0.418463,0.406256,0.39649,0.400885,0.416266,0.432868,0.445319,0.456062,0.465827,0.472663,0.48072,0.495857,0.503182,0.505379,0.511727,0.522469,0.536629,0.540047,0.535409,0.530037,0.524666,0.5149,0.502693,0.493416,0.473152,0.435065,0.406012,0.39942,0.408698,0.421881,0.434577,0.442145,0.450935,0.462165,0.474861,0.485603,0.489021,0.484627,0.480232,0.481453,0.491707,0.502937,0.495369,0.469978,0.441413,0.430915,0.434089,0.441169,0.449226,0.450202,0.444831,0.440436,0.436774,0.41529,0.403326,0.415045,0.441169,0.470954,0.496101,0.512947,0.520272,0.524666,0.525399,0.521736,0.514656,0.506111,0.49781,0.492439,0.493416,0.499275,0.499275,0.491707,0.478035,0.468757,0.470222,0.471443,0.470954,0.472175,0.462898,0.454597,0.448005,0.446052,0.445075,0.437263,0.421149,0.412116,0.418463,0.427008,0.428717,0.430182,0.448737,0.474128,0.490974,0.503914,0.508064,0.506844,0.495857,0.481697,0.47071,0.465827,0.467048,0.469001,0.473152,0.474861,0.475349,0.47657,0.482673,0.493416,0.502937,0.50782,0.5149,0.519295,0.52076,0.515633,0.508309,0.502449,0.493416,0.476326,0.453376,0.428962,0.411383,0.39649,0.383551,0.383062,0.397223,0.41529,0.430426,0.443854,0.451179,0.459724,0.468269,0.474617,0.478523,0.479988,0.484138,0.485359,0.487556,0.488777,0.489998,0.491951,0.493904,0.494636,0.494148,0.494148,0.495857,0.499275,0.504158,0.509773,0.512947,0.509773,0.50074,0.493416,0.485847,0.48072,0.473884,0.461189,0.444099,0.434333,0.435065,0.444587,0.448737,0.451423,0.457038,0.461677,0.462409,0.461677,0.462409,0.458259,0.449714,0.448493,0.458259,0.474128,0.4795,0.470466,0.45362,0.44947,0.453132,0.447517,0.431647,0.418708,0.417243,0.421637,0.442145,0.469001,0.492195,0.505379,0.510994,0.519539,0.520516,0.511482,0.495857,0.486336,0.485359,0.487556,0.487068,0.484627,0.480964,0.473396,0.46656,0.462898,0.456794,0.445319,0.437995,0.434821,0.437263,0.441169,0.449714,0.45948,0.468513,0.475837,0.47779,0.48072,0.485359,0.484871,0.482918,0.4795,0.479988,0.476326,0.471443,0.474372,0.481697,0.487312,0.486091,0.483162,0.482429,0.485603,0.483162,0.471931,0.459724,0.459724,0.470954,0.485115,0.495369,0.500496,0.500984,0.496101,0.487556,0.474861,0.457282,0.443122,0.434577,0.433845,0.435309,0.440192,0.449714,0.464118,0.46949,0.467048,0.460456,0.458991,0.468757,0.47779,0.491218,0.500496,0.495613,0.490242,0.491951,0.498787,0.498787,0.50074,0.500252,0.472663,0.437507,0.427985,0.41944,0.392096,0.385016,0.405035,0.439216,0.464851,0.47779,0.478767,0.477302,0.474617,0.474861,0.478767,0.482673,0.481209,0.478523,0.477302,0.478035,0.478035,0.47657,0.472175,0.467292,0.461433,0.458015,0.455573,0.451179,0.445075,0.438239,0.437751,0.441657,0.44947,0.458015,0.467536,0.47657,0.479011,0.485603,0.49073,0.496834,0.503426,0.506844,0.509285,0.51368,0.515877,0.516609,0.516121,0.511971,0.5066,0.503182,0.499519,0.497566,0.49366,0.487312,0.480476,0.47657,0.471199,0.461921,0.45362,0.44654,0.440681,0.436286,0.431891,0.429206,0.43238,0.442634,0.452399,0.4607,0.461921,0.456062,0.451667,0.447517,0.443366,0.44239,0.44361,0.441169,0.437018,0.429938,0.430915,0.442878,0.466804,0.49366,0.5149,0.532479,0.547127,0.559091,0.552743,0.539071,0.526864,0.499763,0.464607,0.434577,0.409674,0.403082,0.420905,0.447272,0.470222,0.4795,0.473152,0.466072,0.461189,0.460456,0.458747,0.454353,0.448005,0.445319,0.447517,0.453864,0.452888,0.448005,0.452155,0.465339,0.474372,0.472419,0.467048,0.468513,0.474617,0.486824,0.501228,0.512947,0.511971,0.505867,0.49781,0.487068,0.471199,0.461677,0.466072,0.472419,0.478767,0.492927,0.502205,0.499031,0.492683,0.485603,0.478279,0.472663,0.471199,0.466804,0.464607,0.462165,0.458015,0.456062,0.456306,0.457527,0.462409,0.469978,0.479744,0.482673,0.472663,0.458015,0.426032,0.394781,0.389899,0.393561,0.386969,0.38526,0.398688,0.424567,0.453132,0.478767,0.498054,0.50367,0.506111,0.509773,0.513924,0.523445,0.523934,0.518563,0.514656,0.510018,0.50782,0.507088,0.50367,0.501961,
0.408942,0.425788,0.445563,0.465827,0.479744,0.490486,0.502693,0.52076,0.534188,0.537362,0.532479,0.531991,0.532235,0.528573,0.52076,0.508309,0.498543,0.49073,0.486824,0.489265,0.491463,0.490486,0.485603,0.495125,0.508309,0.528817,0.533211,0.5337,0.535653,0.531502,0.515633,0.485847,0.464607,0.446052,0.40528,0.355962,0.322515,0.302983,0.310796,0.333989,0.368414,0.403082,0.430671,0.451667,0.466804,0.475593,0.483162,0.493904,0.509041,0.52491,0.536385,0.538338,0.541268,0.537606,0.530526,0.530282,0.533211,0.529305,0.516365,0.497078,0.476081,0.459724,0.449226,0.439216,0.435554,0.436774,0.440681,0.443366,0.45069,0.461677,0.475837,0.490486,0.501228,0.501961,0.497078,0.497078,0.495369,0.48072,0.451667,0.43238,0.423102,0.424811,0.431159,0.441413,0.469245,0.505623,0.537606,0.546883,0.530282,0.492439,0.41651,0.338384,0.313237,0.33106,0.375006,0.423835,0.465095,0.493172,0.513191,0.530037,0.539315,0.536873,0.52784,0.517586,0.517586,0.519051,0.507576,0.491707,0.47657,0.460945,0.455818,0.460456,0.473884,0.487312,0.496834,0.497322,0.4878,0.488289,0.486336,0.462409,0.416266,0.38526,0.385748,0.400641,0.424567,0.437018,0.442145,0.446296,0.452155,0.4607,0.468025,0.469734,0.479744,0.49781,0.523934,0.546151,0.560311,0.563973,0.551522,0.529793,0.504891,0.48365,0.451179,0.4065,0.378424,0.389654,0.422858,0.456062,0.474861,0.476081,0.475593,0.4795,0.485359,0.48072,0.452888,0.423835,0.412604,0.418708,0.430182,0.437507,0.44239,0.448249,0.45069,0.451667,0.455085,0.468269,0.483162,0.495613,0.508553,0.52491,0.538338,0.546883,0.543465,0.533944,0.518074,0.503914,0.48658,0.462654,0.445808,0.442634,0.437018,0.44239,0.459236,0.478523,0.500984,0.50782,0.505135,0.506355,0.509529,0.502205,0.491463,0.461921,0.406744,0.364996,0.364752,0.388922,0.420905,0.448493,0.470954,0.484138,0.486091,0.480232,0.467536,0.435798,0.403571,0.39942,0.419196,0.442145,0.458015,0.46363,0.471687,0.482918,0.49073,0.494636,0.498299,0.498543,0.501717,0.503914,0.50782,0.509285,0.515145,0.527108,0.53785,0.548348,0.553964,0.558846,0.563241,0.560067,0.552499,0.530037,0.492683,0.45655,0.423835,0.368658,0.305913,0.266117,0.271244,0.314946,0.369635,0.41236,0.440925,0.452399,0.464851,0.482918,0.501961,0.50782,0.50367,0.492439,0.478523,0.468757,0.460945,0.45948,0.46656,0.469978,0.470954,0.478523,0.495613,0.51783,0.528573,0.532967,0.539071,0.549569,0.550546,0.543465,0.535897,0.529305,0.516121,0.468757,0.421393,0.404547,0.420661,0.454597,0.474128,0.476326,0.467292,0.462409,0.463874,0.458503,0.447028,0.423102,0.387213,0.37232,0.391119,0.422858,0.4607,0.489509,0.50074,0.500984,0.503914,0.507576,0.510994,0.499275,0.471199,0.444587,0.428717,0.408942,0.4065,0.427985,0.462898,0.499031,0.524666,0.531502,0.525643,0.515145,0.502937,0.488533,0.480232,0.479988,0.469245,0.435798,0.412116,0.408942,0.421149,0.436042,0.457282,0.478035,0.492439,0.508309,0.525399,0.54078,0.539803,0.518807,0.50074,0.488777,0.455085,0.396735,0.378912,0.398932,0.420172,0.432624,0.444099,0.459724,0.478767,0.498787,0.478523,0.436774,0.422614,0.42652,0.435309,0.459236,0.488533,0.515389,0.52784,0.527108,0.521492,0.514656,0.506111,0.499031,0.491463,0.478279,0.463874,0.4607,0.464363,0.464363,0.459236,0.45655,0.459724,0.466804,0.472663,0.471199,0.468269,0.468757,0.468757,0.464363,0.458259,0.449714,0.441169,0.434333,0.433112,0.43946,0.445563,0.45069,0.457527,0.460456,0.466316,0.47071,0.478767,0.495369,0.515145,0.524666,0.523445,0.516609,0.514656,0.511727,0.504158,0.493904,0.491218,0.491707,0.490486,0.48072,0.472419,0.466804,0.460945,0.452155,0.440925,0.435065,0.443366,0.449714,0.454353,0.462898,0.477302,0.495125,0.501472,0.500008,0.489265,0.459724,0.434333,0.407233,0.376226,0.357671,0.370855,0.406744,0.440436,0.463874,0.471199,0.468269,0.468513,0.479011,0.496101,0.506844,0.504646,0.503182,0.504158,0.509773,0.513191,0.512459,0.515633,0.532967,0.552743,0.556161,0.54786,0.54493,0.545907,0.548348,0.543954,0.516121,0.463142,0.385748,0.285405,0.228763,0.241215,0.294194,0.358648,0.40943,0.438483,0.451667,0.457038,0.461433,0.470222,0.479744,0.490242,0.49659,0.500008,0.495125,0.490242,0.493416,0.505135,0.508797,0.499519,0.489509,0.479744,0.476814,0.480964,0.489021,0.500008,0.508309,0.515633,0.524422,0.529305,0.534188,0.535409,0.534432,0.521004,0.499275,0.477058,0.459236,0.444343,0.423346,0.410163,0.407233,0.409918,0.420905,0.433356,0.449226,0.461921,0.461921,0.458259,0.461189,0.469734,0.476081,0.483406,0.489021,0.496345,0.504158,0.511482,0.511482,0.516365,0.519539,0.517586,0.510994,0.508797,0.506111,0.491707,0.463142,0.434577,0.417243,0.379156,0.320073,0.293217,0.316655,0.371344,0.424079,0.461921,0.487068,0.501228,0.513191,0.522713,0.52369,0.515877,0.51075,0.509041,0.505623,0.495369,0.47779,0.459968,0.443122,0.433845,0.433845,0.442145,0.454597,0.462165,0.461189,0.459724,0.460945,0.469245,0.477058,0.487556,0.495857,0.509285,0.524422,0.530282,0.530526,0.521981,0.508064,0.504402,0.505379,0.489754,0.462409,0.43653,0.425055,0.435554,0.456306,0.48072,0.497566,0.506111,0.507576,0.516121,0.522469,0.512947,0.491951,0.484627,0.485359,0.460945,0.411383,0.384771,0.389899,0.383307,0.358648,0.356207,0.377935,0.404547,0.427008,0.438727,0.451911,0.466072,0.473396,0.479744,0.49073,0.501961,0.518807,0.534432,0.543465,0.542977,0.540291,0.532967,0.512215,0.478523,0.457282,0.4607,0.469734,0.467536,0.466804,0.476814,0.484627,0.476326,0.459236,0.447517,0.444587,0.444831,0.443366,0.43946,0.437507,0.437018,0.438239,0.442878,0.44947,0.456306,0.458991,0.459236,0.458015,0.455818,0.463386,0.481697,0.490486,0.48072,0.47071,0.474617,0.48658,0.494881,0.496834,0.501961,0.512459,0.519783,0.536385,0.555917,0.566903,0.560067,0.545663,0.529793,0.511971,0.47364,0.431403,0.421149,0.432624,0.455085,0.47779,0.484138,0.470222,0.455329,0.44239,0.428962,0.411383,0.382574,0.361334,0.358648,0.381109,0.402594,0.418463,0.428717,0.43653,0.446296,0.451179,0.447272,0.453132,0.474861,0.493904,0.508064,0.529061,0.553231,0.563729,0.566903,0.56495,0.555428,0.540291,0.513924,0.462409,0.404303,0.381842,0.396246,0.409674,0.411383,0.41529,0.430426,0.458259,0.479988,0.481697,0.476814,0.478035,0.47779,0.489265,0.502205,0.506111,0.498299,0.490242,0.48365,0.476326,0.466072,0.451911,0.447517,0.444343,0.440681,0.44361,0.451911,0.461189,0.463142,0.468513,0.468269,0.467781,0.470954,0.473884,0.473396,0.468269,0.464607,0.472175,0.493172,0.509285,0.512947,0.516121,0.5149,0.508309,0.493416,0.478767,0.465827,0.457038,0.445319,0.448249,0.472419,0.492195,0.505135,0.515877,0.518807,0.520516,0.525887,0.526619,0.518318,0.499031,0.470954,0.442634,0.412848,0.400397,0.388922,0.377935,0.385748,0.394293,0.390143,0.390143,0.400885,0.418463,0.43653,0.455329,0.471931,0.482673,0.488533,0.496101,0.494881,0.494392,0.501472,0.508553,0.511238,0.515877,0.522225,0.525154,0.526375,0.52369,0.515389,0.502205,0.492439,0.4878,0.485359,0.478767,0.468513,0.443854,0.405524,0.382818,0.386725,0.40528,0.425788,0.444587,0.45948,0.466072,0.478279,0.491951,0.496101,0.486336,0.470954,0.457038,0.449226,0.434577,0.428473,0.440192,0.460945,0.478035,0.487068,0.493416,0.502449,0.489998,0.450202,0.43653,0.464607,0.51075,0.543221,0.559335,0.5608,0.550546,0.536385,0.528084,0.522713,0.505867,0.466072,0.416999,0.393805,0.396246,0.412848,0.431647,0.439948,0.42945,0.420172,0.413336,0.414313,0.425055,0.443122,0.458259,0.46363,0.45948,0.458015,0.466072,0.479011,0.492439,0.501961,0.500496,0.495857,0.491463,0.485115,0.478523,0.474128,0.478523,0.479744,0.474861,0.471931,0.473152,0.482673,0.501228,0.512947,0.522713,0.531991,0.534188,0.531258,0.52784,0.517586,0.507332,0.49781,0.481209,0.469001,0.474861,0.480476,0.469245,0.437995,0.410407,0.393561,0.383551,0.384527,0.376715,0.361334,0.353277,0.365972,0.404059,0.4336,0.45362,0.477546,0.505379,0.522225,0.52784,0.520516,0.527108,0.530282,0.505623,0.462165,0.439704,0.443122,0.461433,0.488289,0.522225,0.54493,0.530037,0.487312,0.449714,0.434577,0.420417,0.405035,0.411139,0.434089,0.461921,0.481453,0.488777,0.489998,0.490242,0.492439,0.495125,0.495613,0.489509,0.482673,0.4795,0.473884,0.470222,0.466316,0.461677,0.457038,0.451667,0.449714,0.448249,0.448249,0.444831,0.441901,0.441657,0.44654,0.453864,0.462654,0.483406,0.503182,0.516365,0.515145,0.522469,0.536385,0.533944,0.517586,0.495857,0.468757,0.458259,0.465583,0.480476,0.493416,0.500984,0.500496,0.491463,0.48365,0.4795,0.472908,0.462898,0.447272,0.440192,0.437995,0.436774,0.440681,0.444831,0.44654,0.442145,0.437751,0.444587,0.442634,0.437995,0.445075,0.463386,0.48365,0.498299,0.507332,0.504891,0.494636,0.494148,0.498543,0.477546,0.438727,0.396002,0.36817,0.363043,0.381353,0.416022,0.450446,0.475105,0.49366,0.505135,0.515877,0.52784,0.533455,0.526375,0.508797,0.493904,0.483406,0.472419,0.45948,0.454108,0.456062,0.462654,0.468025,0.472663,0.478035,0.477546,0.479988,0.484627,0.482429,0.467781,0.448737,0.437018,0.434577,0.4336,0.43653,0.444587,0.453376,0.457527,0.465827,0.479255,0.491463,0.510262,0.529793,0.536141,0.535409,0.541268,0.553719,0.558114,0.555673,0.550546,0.534676,0.495857,0.437018,0.400641,0.403815,0.432624,0.461677,0.477302,0.471443,0.437507,0.415778,0.416266,0.408942,0.385748,0.364508,0.372808,0.406012,0.438727,0.454353,0.455329,0.449226,0.446052,0.448493,0.451667,
0.452155,0.472908,0.481209,0.481453,0.481453,0.486336,0.486091,0.481453,0.482673,0.48365,0.4795,0.469001,0.460456,0.4607,0.461189,0.451179,0.441657,0.437507,0.436286,0.431647,0.43238,0.439216,0.448493,0.452399,0.452399,0.458015,0.470954,0.48365,0.4878,0.492439,0.505867,0.515145,0.518074,0.516121,0.508553,0.497566,0.488533,0.492439,0.496834,0.489021,0.470954,0.456794,0.453132,0.453376,0.458259,0.465095,0.475837,0.477546,0.473152,0.465827,0.454841,0.439704,0.431403,0.429938,0.437263,0.45069,0.465827,0.483162,0.499519,0.516609,0.537362,0.557626,0.540536,0.492683,0.465827,0.465827,0.457282,0.41236,0.355718,0.328618,0.350835,0.398444,0.440436,0.459236,0.458503,0.466072,0.483894,0.506355,0.521004,0.521492,0.521004,0.525643,0.526375,0.511971,0.492195,0.471931,0.4607,0.467048,0.479744,0.489509,0.49073,0.480964,0.46656,0.44947,0.43653,0.44361,0.453376,0.45948,0.448493,0.428229,0.409674,0.400397,0.390875,0.383307,0.393561,0.416999,0.441169,0.459968,0.469734,0.485359,0.505867,0.526619,0.549081,0.561532,0.561044,0.551522,0.542245,0.537606,0.532723,0.532967,0.531014,0.522713,0.508309,0.502205,0.50367,0.504158,0.491463,0.47071,0.450202,0.435798,0.421637,0.411383,0.400885,0.402594,0.41529,0.431891,0.452644,0.469978,0.478279,0.471931,0.461433,0.458015,0.445808,0.427741,0.409674,0.402838,0.417975,0.445075,0.463142,0.469978,0.488289,0.51075,0.509773,0.487068,0.459968,0.446296,0.443122,0.452888,0.471443,0.478767,0.473884,0.471199,0.493172,0.52369,0.54493,0.551278,0.546395,0.532967,0.503914,0.474617,0.443366,0.405768,0.392096,0.403082,0.417975,0.423835,0.427741,0.437018,0.444099,0.446296,0.444587,0.442145,0.44239,0.446784,0.447517,0.44947,0.463874,0.482429,0.500496,0.509773,0.514656,0.535653,0.553475,0.557626,0.547372,0.54493,0.531991,0.493416,0.460212,0.448493,0.458747,0.484382,0.502205,0.502205,0.491218,0.465095,0.419196,0.380133,0.37232,0.387945,0.407233,0.424811,0.443854,0.464607,0.481453,0.489021,0.493172,0.500984,0.505379,0.502937,0.481941,0.45069,0.435798,0.438239,0.439948,0.432136,0.416999,0.409674,0.421881,0.448005,0.470954,0.486336,0.500252,0.506355,0.509285,0.505867,0.50074,0.501961,0.502205,0.503182,0.5066,0.504891,0.501472,0.503914,0.509041,0.514412,0.510018,0.500496,0.484627,0.45362,0.40943,0.385992,0.388434,0.408942,0.428229,0.446052,0.46656,0.478523,0.481941,0.479011,0.474861,0.469734,0.465827,0.461677,0.457282,0.451911,0.448005,0.449714,0.451423,0.458503,0.466804,0.475105,0.482673,0.490486,0.493904,0.498787,0.500984,0.500984,0.495613,0.485359,0.480232,0.481697,0.490974,0.503182,0.508553,0.505135,0.50367,0.508553,0.506355,0.497322,0.473396,0.438972,0.421881,0.427008,0.441901,0.452399,0.455329,0.454597,0.453376,0.453132,0.453864,0.446784,0.436286,0.4336,0.43653,0.439216,0.44947,0.458747,0.465827,0.473152,0.483162,0.493904,0.507088,0.519051,0.528328,0.523934,0.502449,0.457527,0.417243,0.403326,0.411139,0.421149,0.413092,0.410895,0.427497,0.456306,0.480476,0.495125,0.505867,0.517342,0.524422,0.528573,0.538827,0.545174,0.543954,0.54078,0.529061,0.505623,0.482673,0.468757,0.453376,0.419196,0.359625,0.313725,0.303227,0.325444,0.367437,0.408453,0.439216,0.462654,0.480232,0.492927,0.503182,0.512947,0.517342,0.523934,0.528573,0.53077,0.525399,0.517586,0.510994,0.504891,0.499519,0.48658,0.474861,0.467781,0.467536,0.471443,0.472419,0.472908,0.474128,0.476814,0.482185,0.488045,0.491707,0.488289,0.482673,0.477058,0.473152,0.470954,0.464363,0.452644,0.440436,0.435798,0.435554,0.436286,0.437507,0.450446,0.467048,0.473152,0.468513,0.457527,0.44947,0.449226,0.447761,0.445563,0.45362,0.465827,0.475593,0.474617,0.471443,0.478767,0.491218,0.50367,0.509041,0.515877,0.526375,0.5149,0.485115,0.461677,0.454841,0.46656,0.479255,0.48365,0.48072,0.48072,0.483162,0.486824,0.495125,0.491707,0.468269,0.431159,0.391852,0.368658,0.372808,0.39234,0.409186,0.423835,0.438972,0.457771,0.4795,0.499763,0.51783,0.532235,0.529061,0.509529,0.487312,0.467781,0.453132,0.453376,0.463386,0.474861,0.485847,0.492927,0.497566,0.502937,0.509529,0.51075,0.507332,0.506355,0.513924,0.522469,0.527596,0.525399,0.515633,0.50367,0.491951,0.472663,0.433356,0.369635,0.316411,0.313237,0.341314,0.383062,0.42652,0.465583,0.494392,0.509529,0.50367,0.48365,0.475837,0.481697,0.479744,0.450446,0.416999,0.401373,0.410407,0.434333,0.464363,0.482429,0.492927,0.502205,0.508553,0.520027,0.528817,0.532235,0.52491,0.514168,0.506355,0.491463,0.475593,0.467536,0.469001,0.480476,0.489509,0.490242,0.480476,0.468757,0.461189,0.462165,0.463142,0.458015,0.448249,0.442878,0.439216,0.438483,0.443366,0.45069,0.455818,0.451423,0.441413,0.438483,0.445075,0.458503,0.470466,0.475837,0.47779,0.479744,0.483162,0.490974,0.494148,0.500496,0.503182,0.492927,0.482429,0.488289,0.503426,0.521004,0.533944,0.542489,0.534676,0.515877,0.498299,0.484382,0.454353,0.400885,0.358892,0.350103,0.370123,0.402106,0.438727,0.463386,0.477546,0.488045,0.501961,0.524178,0.542977,0.545174,0.529793,0.515633,0.508797,0.478279,0.409186,0.34107,0.307134,0.308843,0.340093,0.381598,0.419928,0.451911,0.482429,0.503182,0.514656,0.520516,0.521492,0.517342,0.504402,0.489021,0.487068,0.50074,0.514656,0.532479,0.564218,0.59791,0.613291,0.600595,0.572274,0.556161,0.531014,0.449714,0.346441,0.302495,0.309331,0.335943,0.368902,0.39527,0.41944,0.435065,0.445563,0.448981,0.458503,0.471443,0.48365,0.49659,0.503182,0.499519,0.486824,0.48072,0.47657,0.456062,0.428229,0.427985,0.448249,0.468025,0.479988,0.482673,0.483162,0.480964,0.476814,0.474372,0.48072,0.504402,0.526619,0.538338,0.544198,0.547127,0.543221,0.537606,0.536629,0.541024,0.540047,0.525154,0.504891,0.472663,0.425544,0.386481,0.356695,0.337407,0.333501,0.340093,0.360601,0.389899,0.420417,0.446296,0.466072,0.478767,0.489265,0.506111,0.518318,0.509773,0.488045,0.467781,0.451667,0.437263,0.430182,0.438972,0.462898,0.490486,0.513191,0.516854,0.515145,0.512703,0.508064,0.509285,0.513191,0.51368,0.506355,0.498299,0.490974,0.484138,0.475593,0.464851,0.453376,0.457771,0.46949,0.471443,0.467048,0.471443,0.48072,0.481453,0.481941,0.476814,0.469001,0.464851,0.455329,0.444587,0.441901,0.44361,0.445319,0.443854,0.424079,0.387701,0.377691,0.402106,0.445808,0.491463,0.52369,0.538582,0.533455,0.52076,0.504158,0.475349,0.450935,0.445319,0.451179,0.459724,0.459724,0.453864,0.454841,0.463142,0.475837,0.486824,0.492439,0.488777,0.491218,0.496345,0.499763,0.503182,0.500984,0.492683,0.47779,0.45362,0.437507,0.423346,0.400885,0.37525,0.368414,0.380377,0.405524,0.431647,0.452155,0.467781,0.483406,0.502937,0.52369,0.538827,0.553475,0.563729,0.570809,0.571542,0.559823,0.548104,0.540047,0.529793,0.494636,0.427497,0.373053,0.37525,0.408698,0.437751,0.464118,0.483406,0.48658,0.481209,0.468269,0.456062,0.434821,0.414069,0.407233,0.406989,0.407965,0.412604,0.42359,0.44361,0.462898,0.477058,0.482429,0.485359,0.496101,0.504402,0.50074,0.485603,0.468269,0.459236,0.462898,0.470222,0.483406,0.507576,0.525154,0.528817,0.527108,0.515389,0.491951,0.467292,0.461189,0.478523,0.504402,0.527596,0.537362,0.532235,0.516609,0.495613,0.471931,0.45655,0.440681,0.417243,0.404791,0.394537,0.384771,0.387213,0.400153,0.414801,0.428473,0.437751,0.442878,0.452155,0.47071,0.484871,0.48658,0.47779,0.47071,0.464363,0.460212,0.459236,0.464363,0.467781,0.469734,0.475105,0.489021,0.5066,0.518807,0.527596,0.531258,0.530526,0.531014,0.529793,0.521736,0.503914,0.483894,0.478035,0.477058,0.461921,0.436774,0.42945,0.438727,0.452155,0.456306,0.458259,0.458259,0.457771,0.455818,0.444831,0.429938,0.414313,0.412604,0.425055,0.438483,0.448249,0.450446,0.455329,0.458259,0.451911,0.437751,0.43238,0.43946,0.453132,0.467781,0.480964,0.485359,0.489021,0.499031,0.521248,0.545907,0.549813,0.526131,0.51783,0.539315,0.565194,0.576181,0.569833,0.555917,0.519051,0.438239,0.377447,0.370855,0.392828,0.420172,0.442145,0.463874,0.471687,0.464607,0.450935,0.439704,0.425055,0.395026,0.361334,0.353521,0.373785,0.404547,0.432868,0.458259,0.479744,0.49366,0.496345,0.499031,0.503914,0.503914,0.506111,0.513924,0.515633,0.512459,0.5066,0.498299,0.495369,0.500008,0.516854,0.528328,0.531502,0.525643,0.504158,0.475593,0.458991,0.458991,0.464851,0.463142,0.455329,0.450935,0.449714,0.449226,0.448737,0.451667,0.459724,0.469245,0.475837,0.488777,0.501228,0.502937,0.49366,0.477058,0.456794,0.435065,0.418708,0.398199,0.363775,0.333013,0.338628,0.374029,0.41944,0.464607,0.501228,0.524666,0.531991,0.52784,0.514656,0.505135,0.503426,0.50782,0.507088,0.502205,0.495857,0.497322,0.504158,0.502693,0.490242,0.481453,0.484138,0.490486,0.498543,0.502449,0.502937,0.504158,0.499275,0.480476,0.45362,0.438727,0.429938,0.416999,0.398688,0.385504,0.387701,0.411383,0.453132,0.494881,0.524178,0.539071,0.538582,0.536629,0.53077,0.519051,0.510506,0.485603,0.428717,0.359869,0.323247,0.329351,0.369146,0.420417,0.464607,0.489998,0.503182,0.509041,0.51075,0.507088,0.499519,0.496345,0.492439,0.491951,0.497322,0.507088,0.51783,0.519051,0.519783,0.51368,0.496834,0.47071,0.447272,0.425788,0.405524,0.394781,0.39942,0.424079,0.44239,0.444587,0.447028,0.451179,0.450935,0.452399,0.461677,0.459236,0.454597,0.461189,0.489754,0.526375,0.553475,0.567391,0.566903,0.550057,0.519295,0.481697,0.447517,0.418463,0.411139,0.425544,0.446784,
0.545174,0.531258,0.508064,0.476814,0.451179,0.438483,0.430915,0.422858,0.423102,0.425544,0.424079,0.423835,0.425055,0.42652,0.422126,0.414557,0.41236,0.416266,0.425544,0.437751,0.456306,0.477058,0.495857,0.509529,0.514656,0.518807,0.525643,0.536385,0.537118,0.533944,0.526864,0.515633,0.512947,0.517586,0.504646,0.470954,0.443122,0.434821,0.42652,0.418219,0.413825,0.434333,0.472908,0.504646,0.519051,0.517586,0.507576,0.483162,0.436042,0.400641,0.393561,0.398688,0.404303,0.410407,0.424811,0.437995,0.453132,0.461189,0.465583,0.472908,0.482673,0.486824,0.48658,0.487068,0.481697,0.468757,0.458747,0.460456,0.475593,0.490242,0.507576,0.521004,0.528328,0.527352,0.525887,0.513191,0.499519,0.496834,0.501472,0.500496,0.497566,0.47779,0.448249,0.427741,0.41529,0.420661,0.434821,0.453132,0.463386,0.462898,0.468025,0.468757,0.450446,0.430915,0.422126,0.425055,0.435065,0.451423,0.473152,0.486091,0.493172,0.492927,0.497566,0.501228,0.48658,0.451667,0.427253,0.421393,0.411383,0.415534,0.436774,0.458991,0.471443,0.476326,0.482673,0.490486,0.502449,0.511727,0.519783,0.523445,0.520516,0.512703,0.504402,0.495613,0.48072,0.461189,0.452155,0.456306,0.463386,0.470954,0.478279,0.486336,0.488777,0.484382,0.478523,0.473396,0.473884,0.470222,0.44947,0.415778,0.393072,0.398444,0.423835,0.44947,0.467781,0.476081,0.480964,0.481941,0.477058,0.469245,0.468513,0.469001,0.467536,0.46656,0.470222,0.479988,0.490486,0.496101,0.493172,0.49073,0.494636,0.50367,0.51368,0.517586,0.512703,0.501228,0.487312,0.47657,0.483162,0.508553,0.513924,0.48365,0.448981,0.42652,0.417243,0.418952,0.428962,0.441657,0.450446,0.45362,0.455329,0.458991,0.462409,0.465827,0.466316,0.468025,0.473396,0.486336,0.494392,0.490974,0.472908,0.457771,0.454841,0.4607,0.468757,0.4795,0.490974,0.499031,0.507088,0.510994,0.51075,0.50782,0.50782,0.507088,0.496345,0.480964,0.476081,0.480232,0.477546,0.470954,0.472175,0.482185,0.503182,0.517342,0.512215,0.503914,0.508309,0.526619,0.525887,0.498299,0.485603,0.482673,0.4336,0.319097,0.23267,0.221927,0.276127,0.332769,0.360601,0.381598,0.409186,0.438972,0.47071,0.489021,0.494392,0.496345,0.502937,0.515145,0.529061,0.542977,0.553719,0.567147,0.570565,0.571298,0.567391,0.561532,0.55201,0.527352,0.495369,0.467048,0.442145,0.406012,0.358892,0.327886,0.343023,0.385748,0.431403,0.466316,0.480964,0.484382,0.482673,0.482673,0.485603,0.483894,0.480232,0.480964,0.484138,0.48658,0.48658,0.488289,0.486824,0.480476,0.468269,0.461921,0.462165,0.466804,0.471199,0.473396,0.474861,0.472908,0.469734,0.471443,0.486336,0.501228,0.508797,0.511482,0.510506,0.509773,0.507332,0.503914,0.498054,0.487556,0.47657,0.467292,0.457527,0.452644,0.450446,0.447761,0.448249,0.450446,0.455085,0.456062,0.44654,0.439216,0.435309,0.437507,0.441169,0.439704,0.437507,0.445075,0.461677,0.481453,0.502205,0.522713,0.540291,0.542,0.516854,0.484627,0.466316,0.47071,0.484138,0.4795,0.447028,0.416266,0.407965,0.419928,0.437263,0.442634,0.431159,0.416022,0.404303,0.410651,0.430182,0.454841,0.470954,0.476081,0.478035,0.478035,0.470954,0.461433,0.454353,0.455329,0.458747,0.463874,0.46949,0.467536,0.47071,0.483894,0.498787,0.50367,0.503426,0.501472,0.497322,0.49659,0.501228,0.507088,0.5066,0.508309,0.510262,0.504891,0.492439,0.488289,0.493416,0.494392,0.484871,0.477058,0.477058,0.476814,0.46949,0.457771,0.454597,0.463386,0.465583,0.456306,0.442145,0.435554,0.435798,0.439948,0.445563,0.452399,0.464118,0.474128,0.477546,0.475837,0.474861,0.473396,0.46656,0.459968,0.460945,0.460456,0.45655,0.457527,0.465827,0.476326,0.484382,0.485847,0.488045,0.488045,0.491463,0.491463,0.477058,0.456794,0.443122,0.442878,0.454108,0.445075,0.425299,0.422126,0.442634,0.473884,0.493416,0.498054,0.500984,0.502449,0.499275,0.494392,0.486336,0.474617,0.468025,0.475837,0.494392,0.514412,0.522957,0.51783,0.501961,0.49366,0.472419,0.427253,0.378668,0.344976,0.32398,0.331792,0.363287,0.406989,0.444099,0.471443,0.488533,0.499519,0.504158,0.506355,0.507576,0.50782,0.510994,0.519295,0.529061,0.538338,0.538338,0.530282,0.521248,0.513924,0.506355,0.498054,0.485603,0.472663,0.470954,0.463386,0.440436,0.412116,0.401617,0.412604,0.425788,0.430182,0.430671,0.434089,0.444831,0.45069,0.453376,0.459236,0.464851,0.468513,0.468757,0.467292,0.462654,0.462654,0.463874,0.460212,0.456794,0.462165,0.475837,0.492439,0.498054,0.496101,0.490486,0.491218,0.492195,0.494148,0.494148,0.490486,0.485847,0.485847,0.488533,0.490974,0.494881,0.499031,0.500252,0.493904,0.48365,0.479744,0.477546,0.473152,0.469245,0.464607,0.458747,0.452888,0.444587,0.437507,0.43238,0.42945,0.430671,0.433112,0.435065,0.439704,0.444099,0.448981,0.454841,0.456306,0.458747,0.462165,0.467048,0.475593,0.4795,0.48365,0.489998,0.496345,0.5066,0.511482,0.518074,0.525154,0.53492,0.541512,0.542,0.529793,0.510262,0.487556,0.463142,0.44361,0.436042,0.427497,0.408942,0.396002,0.404303,0.429938,0.450446,0.465827,0.480964,0.485603,0.487556,0.495125,0.499275,0.483406,0.455329,0.437751,0.42652,0.418219,0.421149,0.430915,0.4336,0.424079,0.417731,0.421637,0.435554,0.448493,0.462898,0.477546,0.489509,0.494636,0.49366,0.492195,0.494392,0.498299,0.502205,0.507332,0.508797,0.504891,0.501472,0.497322,0.492927,0.490486,0.493416,0.497322,0.494881,0.486091,0.476081,0.465827,0.455085,0.453132,0.454353,0.45655,0.452399,0.449714,0.451667,0.454597,0.458991,0.461433,0.457527,0.451179,0.444099,0.441413,0.438727,0.43238,0.433845,0.450446,0.469734,0.486336,0.498054,0.508553,0.5149,0.516365,0.525643,0.543954,0.555917,0.545663,0.523201,0.499275,0.470222,0.435309,0.41944,0.433845,0.455329,0.474372,0.478523,0.470222,0.450446,0.42652,0.406989,0.400885,0.413825,0.430671,0.445319,0.456062,0.460212,0.457038,0.451179,0.45362,0.457282,0.452644,0.443366,0.442878,0.451423,0.465095,0.477058,0.488045,0.501961,0.507576,0.502937,0.489754,0.474617,0.46949,0.469001,0.473884,0.478523,0.486091,0.494148,0.499031,0.499031,0.49659,0.494392,0.491951,0.489021,0.482673,0.48365,0.491707,0.489265,0.475349,0.461921,0.461433,0.466072,0.467536,0.466316,0.467536,0.463142,0.451667,0.453864,0.464851,0.478767,0.484138,0.487312,0.486336,0.478279,0.47364,0.470222,0.458991,0.447761,0.44947,0.433356,0.391852,0.369879,0.386725,0.434333,0.472908,0.49073,0.494636,0.492683,0.491951,0.493904,0.498543,0.504891,0.502937,0.492683,0.494881,0.511727,0.527352,0.535653,0.528817,0.517098,0.502937,0.480232,0.451667,0.421881,0.394049,0.378668,0.377203,0.393561,0.424323,0.454353,0.471931,0.478035,0.479988,0.482429,0.479011,0.464851,0.452888,0.455573,0.45948,0.464118,0.477546,0.493172,0.482185,0.451179,0.432868,0.432868,0.449714,0.463874,0.471199,0.479988,0.487312,0.494881,0.500496,0.502693,0.501961,0.496834,0.489509,0.489021,0.49781,0.498787,0.488777,0.468757,0.45069,0.442634,0.447517,0.446784,0.451423,0.465827,0.478767,0.495857,0.511971,0.528573,0.538582,0.547372,0.537362,0.510262,0.489509,0.4607,0.418952,0.394293,0.385992,0.375738,0.391852,0.419928,0.439704,0.45362,0.469001,0.482673,0.492927,0.495613,0.494148,0.49781,0.504646,0.514168,0.516854,0.515633,0.512459,0.508064,0.501228,0.492439,0.475105,0.438972,0.396002,0.370611,0.355962,0.357427,0.371344,0.397223,0.428962,0.453864,0.474617,0.494148,0.512947,0.524178,0.531014,0.537362,0.545174,0.538094,0.517586,0.498054,0.475593,0.4607,0.438239,0.407477,0.391852,0.410895,0.449714,0.476814,0.489998,0.495369,0.491463,0.484871,0.475349,0.472175,0.470954,0.468513,0.468269,0.465827,0.462165,0.469001,0.481697,0.489265,0.489998,0.487312,0.480232,0.472175,0.462165,0.45655,0.454597,0.454353,0.455085,0.455329,0.457527,0.458015,0.457282,0.456306,0.457527,0.457771,0.457771,0.462165,0.472663,0.482918,0.491707,0.491218,0.494636,0.502693,0.512703,0.520272,0.513436,0.491707,0.46656,0.452155,0.457282,0.470954,0.483162,0.490974,0.495369,0.49659,0.495613,0.492195,0.488777,0.485359,0.480964,0.477058,0.473152,0.458259,0.436042,0.417731,0.41236,0.421393,0.432624,0.439948,0.441901,0.440681,0.439704,0.433112,0.419684,0.414313,0.433112,0.472175,0.499275,0.502449,0.49781,0.499031,0.505135,0.509041,0.510018,0.509529,0.499031,0.472663,0.450446,0.438972,0.441657,0.453864,0.467781,0.474617,0.473884,0.472175,0.471931,0.472419,0.4795,0.493172,0.502205,0.506355,0.508064,0.510994,0.512703,0.505379,0.486091,0.462409,0.453376,0.445808,0.409674,0.361578,0.350835,0.370123,0.405524,0.441169,0.467048,0.483894,0.489265,0.488289,0.48658,0.487312,0.494636,0.499031,0.510994,0.530526,0.544198,0.561776,0.580819,0.591562,0.589609,0.576425,0.559579,0.552743,0.538827,0.48072,0.40235,0.356695,0.346929,0.349371,0.348394,0.343511,0.329107,0.321538,0.335943,0.365484,0.406256,0.440925,0.458747,0.463142,0.461433,0.458015,0.459236,0.469978,0.482918,0.497078,0.509285,0.515389,0.516609,0.514656,0.512703,0.508309,0.503914,0.507088,0.508797,0.506355,0.505135,0.501717,0.498299,0.486336,0.471687,0.461189,0.458991,0.46949,0.487312,0.505867,0.513191,0.51783,0.519051,0.515389,0.506111,0.501717,0.491707,0.475349,0.458991,0.442634,0.427741,0.417487,0.414557,0.418952,0.434821,0.44947,0.462898,0.477302,0.486336,0.491463,0.492439,0.486091,0.476081,0.466316,0.470954,0.463386,0.43946,0.398444,0.378668,0.384039,0.401373,0.422126,0.452399,0.479744,0.494636,0.502937,0.504646,0.502693,0.497078,0.491951,0.490242,
0.52784,0.526619,0.52784,0.530526,0.530526,0.525154,0.517342,0.510994,0.505623,0.501472,0.491951,0.478767,0.472419,0.471443,0.477058,0.475105,0.466316,0.456062,0.450202,0.442145,0.434089,0.424323,0.425544,0.448737,0.479255,0.488045,0.478767,0.465583,0.451423,0.447517,0.457771,0.47657,0.496345,0.513924,0.526375,0.535653,0.536385,0.531991,0.517586,0.497566,0.484627,0.463874,0.425544,0.395514,0.384527,0.388678,0.406012,0.428473,0.447761,0.456794,0.462654,0.461921,0.453132,0.444587,0.443854,0.449226,0.45069,0.449958,0.453132,0.455085,0.458503,0.462165,0.463142,0.475593,0.493904,0.506844,0.516854,0.524422,0.537606,0.547372,0.554696,0.558846,0.559823,0.554452,0.535409,0.497322,0.462165,0.44654,0.439216,0.413336,0.377935,0.346929,0.343267,0.370611,0.407965,0.445075,0.471931,0.491463,0.512703,0.518074,0.511727,0.5149,0.51783,0.510018,0.499519,0.490242,0.484871,0.487556,0.481209,0.445808,0.411627,0.38819,0.363531,0.354498,0.364752,0.391119,0.425544,0.450935,0.467048,0.481697,0.500984,0.516854,0.526864,0.528084,0.524422,0.51368,0.504158,0.495369,0.491707,0.488045,0.482185,0.474617,0.471931,0.47657,0.490486,0.502937,0.509041,0.509773,0.510262,0.51368,0.517098,0.511971,0.497322,0.476081,0.451179,0.438483,0.427985,0.437751,0.461677,0.48072,0.483894,0.482429,0.478523,0.483406,0.495857,0.487556,0.437507,0.396002,0.375738,0.366705,0.365728,0.374273,0.396735,0.423835,0.454108,0.483162,0.498299,0.502693,0.505135,0.509773,0.512947,0.527108,0.546883,0.55079,0.525643,0.496345,0.46656,0.432136,0.41651,0.427008,0.446784,0.462409,0.464363,0.462165,0.463142,0.467536,0.474617,0.485847,0.492439,0.486824,0.476814,0.474372,0.470954,0.465095,0.460456,0.461921,0.451179,0.412116,0.382086,0.391852,0.427008,0.456062,0.479988,0.505135,0.527596,0.542,0.541512,0.531746,0.519783,0.519539,0.526619,0.531014,0.534432,0.542489,0.541024,0.526864,0.504402,0.47779,0.448493,0.427497,0.396735,0.359136,0.327398,0.330327,0.374273,0.426276,0.462654,0.472419,0.477302,0.497566,0.496345,0.449226,0.401617,0.387945,0.410407,0.453132,0.482429,0.49073,0.487312,0.489509,0.49781,0.496345,0.47657,0.458259,0.452888,0.462898,0.479744,0.49366,0.501961,0.502937,0.502449,0.504402,0.505379,0.502205,0.497322,0.492439,0.493416,0.492195,0.489265,0.490242,0.491951,0.492439,0.491463,0.491707,0.488289,0.490974,0.475349,0.442634,0.424567,0.424567,0.432868,0.439948,0.445808,0.448981,0.44947,0.440925,0.427008,0.418952,0.424323,0.43653,0.451667,0.461189,0.460212,0.452399,0.459968,0.478279,0.49659,0.515145,0.532723,0.543221,0.542977,0.537606,0.535897,0.528328,0.526375,0.525154,0.505379,0.447272,0.371832,0.325444,0.329839,0.363775,0.401617,0.442878,0.483406,0.511238,0.53077,0.542245,0.543221,0.536873,0.521736,0.50782,0.500984,0.491707,0.476326,0.468757,0.456306,0.43946,0.427985,0.418219,0.41944,0.417975,0.402594,0.389166,0.39942,0.427741,0.459724,0.484382,0.49781,0.501472,0.490486,0.482918,0.48658,0.487068,0.470222,0.454108,0.445563,0.455329,0.478279,0.497566,0.506844,0.5066,0.502937,0.503182,0.506111,0.50782,0.502205,0.498299,0.49366,0.484138,0.472908,0.466316,0.472908,0.473152,0.460212,0.446784,0.441169,0.440192,0.437751,0.433845,0.436286,0.450446,0.466072,0.4795,0.495857,0.511971,0.518074,0.509773,0.499031,0.498543,0.485359,0.438483,0.373541,0.346441,0.368902,0.417975,0.473884,0.516365,0.534676,0.531746,0.520027,0.516121,0.524422,0.521248,0.489509,0.45655,0.446052,0.454108,0.467048,0.475593,0.481697,0.482429,0.46656,0.447272,0.420905,0.390631,0.36817,0.363775,0.381598,0.40528,0.427253,0.443366,0.454108,0.468513,0.484138,0.49659,0.502937,0.50782,0.509773,0.505623,0.502693,0.502205,0.507088,0.513924,0.515389,0.515145,0.5149,0.5149,0.512459,0.508064,0.502449,0.497078,0.489998,0.485115,0.481697,0.482185,0.480232,0.476081,0.466072,0.458991,0.455573,0.452155,0.448737,0.440436,0.431891,0.427741,0.421637,0.422614,0.431891,0.443122,0.448249,0.454108,0.457038,0.463142,0.480232,0.495369,0.508064,0.513191,0.521736,0.535653,0.556649,0.579355,0.572519,0.539071,0.503182,0.458747,0.403326,0.358892,0.34107,0.346441,0.367193,0.398444,0.431647,0.454353,0.459968,0.458503,0.462409,0.471443,0.481209,0.479255,0.473396,0.470466,0.472663,0.478523,0.482918,0.480232,0.473396,0.468025,0.464118,0.457771,0.448005,0.448493,0.457038,0.458503,0.455085,0.457282,0.461921,0.460212,0.456062,0.450935,0.461189,0.479011,0.498054,0.516609,0.537118,0.553964,0.562753,0.563241,0.562264,0.558114,0.521492,0.466804,0.429938,0.413092,0.414313,0.427985,0.441413,0.449714,0.444831,0.424323,0.408698,0.414557,0.441169,0.468757,0.48365,0.482429,0.478523,0.469245,0.466072,0.472908,0.482185,0.482185,0.474617,0.472175,0.472175,0.476326,0.475105,0.462898,0.44947,0.445319,0.452399,0.455329,0.461189,0.478767,0.498543,0.518563,0.522225,0.508309,0.48365,0.456062,0.438483,0.441413,0.451667,0.462409,0.459724,0.454353,0.467781,0.496345,0.515877,0.521492,0.516609,0.494636,0.472175,0.458991,0.459968,0.474617,0.488777,0.504158,0.518074,0.516121,0.498787,0.488045,0.474128,0.450202,0.428962,0.390631,0.337896,0.307378,0.321782,0.367926,0.410407,0.443854,0.468513,0.479011,0.484382,0.495857,0.513924,0.525887,0.5337,0.540291,0.546395,0.55079,0.550546,0.548592,0.547127,0.551522,0.537606,0.509529,0.489021,0.48365,0.483406,0.482673,0.473396,0.464118,0.464363,0.454108,0.425544,0.38819,0.357183,0.337896,0.339849,0.345464,0.340581,0.357427,0.397711,0.435309,0.458015,0.466316,0.469001,0.473884,0.480476,0.484627,0.491707,0.499275,0.501961,0.502693,0.501228,0.502937,0.510018,0.518318,0.52369,0.52076,0.513924,0.510262,0.512459,0.517342,0.510262,0.500008,0.50074,0.504402,0.494148,0.476081,0.463874,0.467536,0.48365,0.482673,0.472175,0.462409,0.451667,0.445563,0.439704,0.439216,0.445808,0.456062,0.463874,0.473396,0.479255,0.479744,0.481697,0.488777,0.485603,0.473152,0.464607,0.466316,0.467781,0.454353,0.435065,0.430915,0.443366,0.48072,0.521004,0.553475,0.562753,0.552987,0.514168,0.471199,0.432868,0.406989,0.398444,0.41236,0.447761,0.480476,0.483894,0.469245,0.447272,0.430915,0.419196,0.420417,0.41529,0.399176,0.397223,0.406012,0.418463,0.431647,0.436042,0.442145,0.449714,0.457771,0.467781,0.478523,0.489998,0.498787,0.505135,0.509285,0.515145,0.508797,0.489509,0.476081,0.477302,0.481453,0.489509,0.508553,0.523201,0.5337,0.54786,0.562753,0.574472,0.578134,0.571054,0.559091,0.55201,0.52369,0.463874,0.403815,0.367437,0.332036,0.321294,0.333257,0.366461,0.40943,0.442145,0.462898,0.467781,0.462409,0.451423,0.443122,0.444099,0.443366,0.441169,0.442145,0.44654,0.452399,0.461921,0.478767,0.498054,0.507332,0.509773,0.511727,0.515877,0.515389,0.511971,0.501717,0.497322,0.495125,0.496345,0.500496,0.506844,0.509285,0.506111,0.505135,0.505135,0.497322,0.4878,0.4795,0.473152,0.457527,0.434333,0.416266,0.411139,0.421149,0.442145,0.466316,0.490974,0.503182,0.497078,0.476814,0.458259,0.430426,0.37818,0.341802,0.339361,0.368414,0.396979,0.427497,0.454353,0.472663,0.489509,0.507576,0.525399,0.542733,0.549325,0.53492,0.509041,0.502449,0.507576,0.512215,0.507088,0.479011,0.458747,0.464118,0.489021,0.513436,0.525154,0.522957,0.523201,0.523201,0.514168,0.493416,0.475837,0.446052,0.403082,0.369879,0.354498,0.347173,0.341802,0.355718,0.38941,0.427008,0.462898,0.485603,0.496345,0.496834,0.495857,0.500252,0.51075,0.509773,0.491951,0.474372,0.454841,0.441169,0.452399,0.482673,0.510994,0.529305,0.535653,0.522469,0.497566,0.472908,0.448981,0.441413,0.447272,0.462165,0.484871,0.504891,0.510262,0.51368,0.515877,0.512703,0.49781,0.481453,0.469245,0.457282,0.440192,0.42237,0.419928,0.42652,0.434089,0.438727,0.440192,0.447028,0.454353,0.4607,0.461189,0.461189,0.467292,0.47779,0.484627,0.493172,0.505135,0.513924,0.516854,0.504402,0.478523,0.459724,0.454353,0.464607,0.472419,0.479255,0.489754,0.501472,0.512459,0.53077,0.542245,0.538094,0.521248,0.500252,0.480476,0.460456,0.427985,0.388922,0.364996,0.364996,0.376226,0.389654,0.402594,0.414313,0.428717,0.450202,0.477546,0.50367,0.52491,0.53785,0.554696,0.552743,0.521736,0.484871,0.460945,0.447517,0.437018,0.425055,0.398688,0.376471,0.366217,0.371832,0.388678,0.412116,0.444343,0.48072,0.515389,0.537606,0.550057,0.558358,0.556649,0.55201,0.539071,0.517098,0.494148,0.460945,0.426276,0.42652,0.442145,0.457527,0.472663,0.484871,0.485115,0.475105,0.454353,0.435309,0.425055,0.431891,0.443366,0.451179,0.45948,0.468757,0.476814,0.481941,0.4878,0.490242,0.491707,0.491707,0.495613,0.494392,0.494148,0.497322,0.496345,0.495369,0.492683,0.49073,0.486824,0.474861,0.463386,0.460212,0.465583,0.470222,0.472175,0.469245,0.464607,0.464851,0.465095,0.464363,0.461677,0.456306,0.457038,0.459724,0.460212,0.459724,0.458259,0.454841,0.445319,0.440681,0.449958,0.469245,0.493172,0.513436,0.532479,0.548348,0.559335,0.556649,0.539315,0.50782,0.472663,0.432624,0.382086,0.34107,0.32813,0.333989,0.357427,0.388678,0.426764,0.458747,0.482918,0.494148,0.501717,0.509773,0.507576,0.496834,0.485359,0.481941,0.48365,0.488045,0.486824,0.480476,0.475837,0.481209,0.486824,0.488777,0.486336,0.481697,0.475837,0.466804,0.45655,0.452399,0.447272,0.449226,0.459968,0.4795,0.502693,0.525643,0.545418,0.562264,0.574228,0.553964,0.508064,0.444587,0.393805,0.377935,0.381109,0.385016,0.39942,0.425544,0.448493,0.462409,0.468025,0.46656,
